t(s),Adsorbed H on surface 1 (H m-2),solute flux surface 1 (H m-2 s-1),Total T surface 1 (K),0 value at [0] (H m-3)
1e-08,84465.2828528182,-210696239332.5397,301.80743866362815,31041583474073.13
2.05e-08,267056.28685378446,-669244318636.8964,304.65048950960994,59482436403555.37
3.1525e-08,606951.2525601708,-1564740620026.0774,308.37518441749467,96183917123162.58
4.3101250000000004e-08,1252546.9745752045,-3386476881044.5503,312.92685961757235,155950092380916.97
5.5256312500000004e-08,2557035.230474666,-7373859950183.33,318.2879468955374,264863376409119.0
6.801912812500001e-08,5379738.775685154,-16775179897294.1,324.4584731948957,475150997992306.1
8.142008453125001e-08,11889496.69728081,-40440409618335.234,331.44875180246675,897478244693553.5
9.549108875781251e-08,27762828.166276317,-103296401512263.53,339.27562629670604,1773301218102496.5
1.1026564319570314e-07,68336150.68996295,-277336899608406.22,347.9603350225379,3639277255688142.0
1.2577892535548832e-07,176129905.9097688,-773930250220483.8,357.52716673001044,7703117472094828.0
1.4206787162326273e-07,471361177.60436666,-2218526683645005.0,368.0025358381182,1.6703014886966214e+16
1.5917126520442587e-07,1298417213.6158078,-6461683473029981.0,379.4142938096374,3.686350805188163e+16
1.7712982846464716e-07,3650648260.286087,-1.893981944313936e+16,391.79117869566664,8.230547274248326e+16
1.9598631988787953e-07,10395635946.316517,-5.54160075782327e+16,405.162347389047,1.848573757215748e+17
2.157856358822735e-07,29771996317.465534,-1.6078391616676218e+17,419.556957800714,4.1551336620119405e+17
2.357856358822735e-07,81109105699.77838,-4.413396116411149e+17,434.40490093787275,9.020891340768315e+17
2.557856358822735e-07,209038136891.11627,-1.139772330056831e+18,449.51305128105264,1.8784571695909786e+18
2.7578563588227355e-07,512465989485.36304,-2.7817537344964613e+18,464.8404728859639,3.7579430208907407e+18
2.9578563588227357e-07,1198838705914.7236,-6.438876667849449e+18,480.35123696576187,7.234964656176404e+18
3.157856358822736e-07,2682935247053.5566,-1.4183151965341039e+19,496.01360622959606,1.3430102535816016e+19
3.357856358822736e-07,5757617045240.033,-2.982943565078029e+19,511.79941355503433,2.408459926266394e+19
3.5578563588227363e-07,11875881470147.984,-6.008991502443491e+19,527.6835674782519,4.181039844937091e+19
3.7578563588227365e-07,23597458318033.9,-1.1628904892831069e+20,543.6436494679346,7.039872455455e+19
3.9578563588227367e-07,45268416552996.38,-2.1680481302135423e+20,559.6595807050609,1.1518573378926936e+20
4.157856358822737e-07,84017332752980.05,-3.904084830839963e+20,575.7133429393025,1.834676619743239e+20
4.357856358822737e-07,151163979976068.75,-6.806664251137829e+20,591.7887422338209,2.8494912818894042e+20
4.5578563588227373e-07,264143740839494.97,-1.151544085181783e+21,607.87120724212,4.321987865641111e+20
4.7578563588227375e-07,449044132045752.4,-1.8943027179628074e+21,623.947615639791,6.410631934614777e+20
4.957856358822737e-07,743826080700256.8,-3.0357246248787237e+21,640.0061437608235,9.30972221290762e+20
5.157856358822737e-07,1202242574956764.5,-4.747615258570629e+21,656.0361355408722,1.325023468600472e+21
5.357856358822738e-07,1898356745455729.5,-7.257433237816092e+21,672.0279876610316,1.8496831838313497e+21
5.557856358822738e-07,2931373834679834.5,-1.0859773454283203e+22,687.9730483894801,2.5338710681318153e+21
5.757856358822738e-07,4430211022458667.5,-1.592826465134091e+22,703.8635280853382,3.4071216326124933e+21
5.957856358822738e-07,6556819238818363.0,-2.292720955603003e+22,719.692419694493,4.4964611406547145e+21
6.157856358822738e-07,9506761082932406.0,-3.242193461002471e+22,735.4534278560831,5.821662794733284e+21
6.357856358822739e-07,1.3505037229578284e+16,-4.5086232240987375e+22,751.1409054689764,7.388737672069332e+21
6.557856358822739e-07,1.8794874814362744e+16,-6.170434571596812e+22,766.7497967532922,9.182009147297992e+21
6.757856358822739e-07,2.5617556713085892e+16,-8.316356553308615e+22,782.2755859927411,1.1156009446624463e+22
6.957856358822739e-07,3.4182922968248656e+16,-1.1043176244151331e+23,797.7142512667899,1.322969528504364e+22
7.157856358822739e-07,4.4633348358899464e+16,-1.445126403647231e+23,813.0622225831036,1.5286743241527522e+22
7.35785635882274e-07,5.700860783749502e+16,-1.8637154303147763e+23,828.3163439047465,1.7186098426241282e+22
7.55785635882274e-07,7.1223631910430376e+16,-2.3682854834132488e+23,843.473838636655,1.878527100096986e+22
7.75785635882274e-07,8.707275953263902e+16,-2.964255452001416e+23,858.5322781945723,1.9974188273405016e+22
7.95785635882274e-07,1.0426924874324432e+17,-3.652898353831963e+23,873.4895533290567,2.07104544877625e+22
8.15785635882274e-07,1.2251623254399102e+17,-4.4303308579853675e+23,888.3438479190096,2.104112568409744e+22
8.357856358822741e-07,1.415890058613379e+17,-5.2873007629515156e+23,903.0936149847388,2.109688324836451e+22
8.557856358822741e-07,1.613979131556963e+17,-6.210056552968506e+23,917.7375547009432,2.1054975633824284e+22
8.757856358822741e-07,1.820055680140744e+17,-7.182205363956084e+23,932.2745942160619,2.108379893418981e+22
8.957856358822741e-07,2.0359247261125696e+17,-8.187043578181803e+23,946.7038691068421,2.1293834603996964e+22
9.157856358822741e-07,2.2638991000279344e+17,-9.20964007488656e+23,961.0247063163587,2.1716905926909424e+22
9.357856358822742e-07,2.5061205887226973e+17,-1.0238109461644202e+24,975.2366084405146,2.231896727239422e+22
9.55785635882274e-07,2.764129940536767e+17,-1.126392028842884e+24,989.3392392426607,2.3033130930219463e+22
9.75785635882274e-07,3.038756337227031e+17,-1.228146879172292e+24,1003.3324102887269,2.3792497662268746e+22
9.957856358822741e-07,3.3302307813317056e+17,-1.328731045322448e+24,1017.2160686064202,2.4549059068754953e+22
1.0157856358822741e-06,3.638371867096673e+17,-1.4279379198864226e+24,1030.9902852818434,2.5277083145834483e+22
1.0357856358822742e-06,3.962733925952769e+17,-1.5256368176297161e+24,1044.655244915518,2.596737147012131e+22
1.0557856358822742e-06,4.302678964383674e+17,-1.6217314299113801e+24,1058.2112358674103,2.661960668597684e+22
1.0757856358822742e-06,4.657382710050031e+17,-1.7161359284570441e+24,1071.6586412272993,2.723676505035325e+22
1.0957856358822742e-06,5.0258002199286637e+17,-1.8087637625946386e+24,1084.99793045281,2.7822287976084955e+22
1.1157856358822742e-06,5.406611681235915e+17,-1.8995243241774115e+24,1098.2296516227484,2.8379148859082872e+22
1.1357856358822743e-06,5.798159829743258e+17,-1.9883237225210773e+24,1111.3544242581247,2.8909805917403987e+22
1.1557856358822743e-06,6.198384334923855e+17,-2.0750672110898557e+24,1124.372932667479,2.94164159702374e+22
1.1757856358822743e-06,6.604756514789234e+17,-2.1596619330421738e+24,1137.2859197769246,2.9901045571706142e+22
1.1957856358822743e-06,7.014218422970075e+17,-2.242019413983489e+24,1150.0941814087237,3.0365810545131075e+22
1.2157856358822743e-06,7.423132287587526e+17,-2.3220576356055707e+24,1162.7985609752718,3.081294583721163e+22
1.2357856358822744e-06,7.82724859663127e+17,-2.399702688471252e+24,1175.3999445581244,3.124482168347792e+22
1.2557856358822744e-06,8.221703231703608e+17,-2.474890046101139e+24,1187.8992563441855,3.1663918995394785e+22
1.2757856358822744e-06,8.601055376969284e+17,-2.5475655027874785e+24,1200.2974543934329,3.2072772193534465e+22
1.2957856358822744e-06,8.959377793644589e+17,-2.6176858090736284e+24,1212.5955267145869,3.2473885409671253e+22
1.3157856358822744e-06,9.290408721137165e+17,-2.6852190321579646e+24,1224.7944876269842,3.2869628202042285e+22
1.3357856358822745e-06,9.587769557896769e+17,-2.750144664697555e+24,1236.895374388595,3.3262118917164967e+22
1.3557856358822745e-06,9.845244446926935e+17,-2.812453503666959e+24,1248.8992440716595,3.36531066648492e+22
1.3757856358822745e-06,1.0057107563146327e+18,-2.8721473205462236e+24,1260.807170668806,3.4043865520774712e+22
1.3957856358822745e-06,1.0218472842907199e+18,-2.9292383452548126e+24,1272.620242413796,3.4435115931458255e+22
1.4157856358822745e-06,1.0325631520959347e+18,-2.983748589125323e+24,1284.3395593022026,3.482698737993715e+22
1.4357856358822746e-06,1.0376337885295789e+18,-3.035709036628904e+24,1295.966230798402,3.5219032612138113e+22
1.4557856358822746e-06,1.0370005339808329e+18,-3.085158740624519e+24,1307.5013737162276,3.5610297292080833e+22
1.4757856358822746e-06,1.0307783959874902e+18,-3.1321438600756264e+24,1318.9461102615483,3.599944087602808e+22
1.4957856358822746e-06,1.0192506031283377e+18,-3.176716680745035e+24,1330.30156622585,3.638489646848334e+22
1.5157856358822746e-06,1.0028504520089245e+18,-3.2189346570981145e+24,1341.5688693206655,3.6765051320039415e+22
1.5357856358822747e-06,9.821326981916628e+17,-3.2588595072949123e+24,1352.749147643399,3.713842687963427e+22
1.5557856358822747e-06,9.577380313801234e+17,-3.2965563836958073e+24,1363.8435282657417,3.750383843433682e+22
1.5757856358822747e-06,9.3035476298905e+17,-3.332093130569279e+24,1374.8531359364692,3.7860518827784e+22
1.5957856358822747e-06,9.006817033120244e+17,-3.3655396307178507e+24,1385.7790918909686,3.820819723066435e+22
1.6157856358822747e-06,8.693954590731736e+17,-3.3969672351306247e+24,1396.622512760357,3.854713084399511e+22
1.6357856358822748e-06,8.371242915150538e+17,-3.4264482652894873e+24,1407.3845095735228,3.887809336388688e+22
1.6557856358822748e-06,8.044295101823694e+17,-3.454055576289697e+24,1418.0661868458678,3.920232817425607e+22
1.6757856358822748e-06,7.717943548072141e+17,-3.479862169758236e+24,1428.6686417489343,3.952147631716768e+22
1.6957856358822748e-06,7.39619564595922e+17,-3.503940847692441e+24,1439.192963355481,3.983748955769362e+22
1.7157856358822748e-06,7.082243883681825e+17,-3.526363900898217e+24,1449.6402319549268,4.015253781850531e+22
1.7357856358822749e-06,6.778516205681019e+17,-3.547202828040762e+24,1460.0115184344086,4.046891847814281e+22
1.7557856358822749e-06,6.486752902018132e+17,-3.566528083092771e+24,1470.3078837210094,4.0788972995124805e+22
1.775785635882275e-06,6.208098051984701e+17,-3.584408850090444e+24,1480.5303782809913,4.111501438130893e+22
1.795785635882275e-06,5.943195946013766e+17,-3.600912844662731e+24,1490.6800416721444,4.144926739527713e+22
1.815785635882275e-06,5.692285434188047e+17,-3.616106141935936e+24,1500.7579021455988,4.179382203248517e+22
1.835785635882275e-06,5.455287465987295e+17,-3.6300530302940755e+24,1510.764976293693,4.215059994668112e+22
1.855785635882275e-06,5.231883022072778e+17,-3.6428158902301793e+24,1520.702268740695,4.252133279852513e+22
1.875785635882275e-06,5.0215801402229536e+17,-3.6544550972474236e+24,1530.570771873384,4.290755113076561e+22
1.895785635882275e-06,4.823769823545525e+17,-3.6650289475173587e+24,1540.371465608688,4.331058215614165e+22
1.915785635882275e-06,4.637771348073929e+17,-3.674593604799846e+24,1550.1053171957476,4.3731554766294065e+22
1.935785635882275e-06,4.4628679309542304e+17,-3.68320306698117e+24,1559.7732810499454,4.41714100910742e+22
1.9557856358822747e-06,4.2983339504831456e+17,-3.690909150488963e+24,1569.3762986165905,4.463091603124397e+22
1.9757856358822745e-06,4.143454987074083e+17,-3.6977614907869685e+24,1578.9152982621029,4.511068433385876e+22
1.9957856358822743e-06,3.9975419298003066e+17,-3.7038075571323186e+24,1588.3911951906664,4.561118896265204e+22
2.015785635882274e-06,3.8599403047931776e+17,-3.709092679787554e+24,1597.804891384457,4.613278472143541e+22
2.035785635882274e-06,3.730035857575822e+17,-3.7136600879161944e+24,1607.1572755656687,4.667572530380829e+22
2.0557856358822737e-06,3.607257281284111e+17,-3.71755095645231e+24,1616.4492231786687,4.7240180155231985e+22
2.0757856358822735e-06,3.4910768402393555e+17,-3.7208044603196844e+24,1625.6815963907284,4.7826249733067936e+22
2.0957856358822733e-06,3.3810095023463366e+17,-3.7234578344824826e+24,1634.8552441098639,4.843397892790332e+22
2.115785635882273e-06,3.2766110697008064e+17,-3.7255464384336744e+24,1643.9710020184214,4.906336855937311e+22
2.135785635882273e-06,3.1774479882093786e+17,-3.727186744775017e+24,1653.0411073727585,4.971651462394761e+22
2.1557856358822728e-06,3.083162696731382e+17,-3.728319095412717e+24,1662.054249372225,5.039101155242605e+22
2.1757856358822726e-06,2.9934250916940314e+17,-3.7289752791493045e+24,1671.0114979068412,5.108686457545621e+22
2.1957856358822724e-06,2.907931807263747e+17,-3.7291847715629965e+24,1679.9137300672812,5.180402425575763e+22
2.215785635882272e-06,2.8264044382097667e+17,-3.728975267655303e+24,1688.7617682424186,5.254241331299622e+22
2.235785635882272e-06,2.748587558976875e+17,-3.728372872609089e+24,1697.5564041493708,5.330193583507145e+22
2.255785635882272e-06,2.6742467297569386e+17,-3.727402218370458e+24,1706.298407313697,5.408248241797348e+22
2.2757856358822716e-06,2.6031665799485098e+17,-3.7260865549251916e+24,1714.9885289871575,5.488393348255426e+22
2.2957856358822714e-06,2.5351490154629616e+17,-3.724447829493952e+24,1723.6275042698417,5.57061615119666e+22
2.3157856358822712e-06,2.4700115713846397e+17,-3.72250675852897e+24,1732.2160533976778,5.654903257915643e+22
2.335785635882271e-06,2.4075859162524582e+17,-3.720282894640912e+24,1740.754882597001,5.741240739057316e+22
2.355785635882271e-06,2.34771650494301e+17,-3.717794689500574e+24,1749.2446846961814,5.82961419987757e+22
2.3757856358822706e-06,2.2902593717459715e+17,-3.715059553284456e+24,1757.6861395926123,5.92000882909516e+22
2.3957856358822705e-06,2.235081052418892e+17,-3.712093911007871e+24,1766.0799146294908,6.012409432886766e+22
2.4157856358822703e-06,2.182057622894549e+17,-3.7089132559765206e+24,1774.426664914165,6.10680045930103e+22
2.43578563588227e-06,2.1310738422662742e+17,-3.7055322005284004e+24,1782.7270335974385,6.203166016704354e+22
2.45578563588227e-06,2.082022388263275e+17,-3.7019645242053903e+24,1790.9816521260327,6.30148988866166e+22
2.4757856358822697e-06,2.0348031743559347e+17,-3.698223219475501e+24,1799.1911404761458,6.40175554679304e+22
2.4957856358822695e-06,1.989322738707239e+17,-3.69432053511561e+24,1807.356107373373,6.503946162544138e+22
2.5157856358822693e-06,1.9455398842818336e+17,-3.690127920191557e+24,1815.4490840214473,6.607352154100024e+22
2.535785635882269e-06,1.9033828236488714e+17,-3.6856977637191716e+24,1823.4783303988036,6.712175998231818e+22
2.555785635882269e-06,1.8627655421033728e+17,-3.6810841163779005e+24,1831.4523593850806,6.818601920822751e+22
2.5757856358822687e-06,1.823604653522015e+17,-3.676315755178131e+24,1839.3748896225743,6.926677513648344e+22
2.5957856358822685e-06,1.7858224093196102e+17,-3.6714135097174997e+24,1847.2483947760973,7.036416936178401e+22
2.6157856358822683e-06,1.7493470550084502e+17,-3.6663940343069605e+24,1855.0747648792455,7.147820991272948e+22
2.635785635882268e-06,1.7141124244496237e+17,-3.661271309858518e+24,1862.8555507996107,7.260884122010636e+22
2.655785635882268e-06,1.6800573522492234e+17,-3.6560574094939963e+24,1870.5920811016833,7.375597360759573e+22
2.6757856358822678e-06,1.6471250984104422e+17,-3.6507629490652734e+24,1878.2855267148468,7.4919496995809436e+22
2.6957856358822676e-06,1.6152628430569088e+17,-3.6453973789411565e+24,1885.9369403737644,7.609928773228924e+22
2.7157856358822674e-06,1.5844212593910106e+17,-3.639969186525549e+24,1893.5472824219685,7.729521223406681e+22
2.735785635882267e-06,1.5545541564112806e+17,-3.6344860443778285e+24,1901.1174386194848,7.850712908566618e+22
2.755785635882267e-06,1.5256181790156237e+17,-3.628954923072338e+24,1908.64823296108,7.97348903571345e+22
2.775785635882267e-06,1.4975725538327453e+17,-3.6233821800400455e+24,1916.1404372236666,8.097834250794677e+22
2.7957856358822666e-06,1.4703788711760637e+17,-3.61777363136689e+24,1923.5947782814635,8.223732705584425e+22
2.8157856358822664e-06,1.444000895648191e+17,-3.6121346110732856e+24,1931.0119438458516,8.351168110060223e+22
2.8357856358822662e-06,1.4184043997285686e+17,-3.606470020923552e+24,1938.392587061586,8.480123774982678e+22
2.855785635882266e-06,1.3935570160777586e+17,-3.6007843728881724e+24,1945.737330252304,8.610582647298636e+22
2.875785635882266e-06,1.3694281053352691e+17,-3.5950818257802853e+24,1953.0467680196973,8.742527339955988e+22
2.8957856358822657e-06,1.3459886369496613e+17,-3.5893662171852265e+24,1960.3214698424827,8.875940157190356e+22
2.9157856358822655e-06,1.3232110811325832e+17,-3.5836410915245145e+24,1967.5619822818044,9.010803116054807e+22
2.9357856358822653e-06,1.3010693104306197e+17,-3.5779097249005906e+24,1974.768830872505,9.147097964796184e+22
2.955785635882265e-06,1.2795385097044674e+17,-3.572175147227166e+24,1981.942521760247,9.284806198563379e+22
2.975785635882265e-06,1.2585950935249443e+17,-3.5664401620468224e+24,1989.0835431307105,9.423909072855651e+22
2.9957856358822647e-06,1.2382166301622232e+17,-3.560707364359229e+24,1996.192366466713,9.564387615047821e+22
3.0157856358822645e-06,1.218381771473303e+17,-3.5549791567245273e+24,2003.269447661642,9.706222634281216e+22
3.0357856358822643e-06,1.1990701880939326e+17,-3.549257763860127e+24,2010.3152280117679,9.84939472996108e+22
3.055785635882264e-06,1.1802625094222478e+17,-3.543545245913429e+24,2017.3301351056434,9.993884299066125e+22
3.075785635882264e-06,1.161940267947296e+17,-3.5378435105640957e+24,2024.3145836253964,1.013967154244295e+23
3.0957856358822638e-06,1.1440858475300632e+17,-3.532154324086624e+24,2031.2689760720866,1.0286736470233918e+23
3.1157856358822636e-06,1.1266824352903042e+17,-3.526479321485057e+24,2038.1937034251634,1.0435058906562741e+23
3.1357856358822634e-06,1.1097139767909962e+17,-3.5208200157964553e+24,2045.089145744429,1.0584618493585979e+23
3.155785635882263e-06,1.0931651342453272e+17,-3.5151778066467683e+24,2051.9556727215345,1.0735394695001262e+23
3.175785635882263e-06,1.0770212474995472e+17,-3.509553988132334e+24,2058.7936441869692,1.0887366799091451e+23
3.195785635882263e-06,1.0612682975697771e+17,-3.5039497560910965e+24,2065.603410577609,1.104051392137298e+23
3.2157856358822626e-06,1.0458928725324898e+17,-3.4983662148200026e+24,2072.385313369126,1.1194815006906114e+23
3.2357856358822624e-06,1.0308821355873376e+17,-3.492804383288833e+24,2079.139685477036,1.1350248832320359e+23
3.2557856358822622e-06,1.0162237951278669e+17,-3.487265200894695e+24,2085.8668516295415,1.1506794007596824e+23
3.275785635882262e-06,1.001906076670471e+17,-3.481749532797081e+24,2092.5671287150103,1.166442897764918e+23
3.295785635882262e-06,9.879176965052459e+16,-3.4762581748688664e+24,2099.24082610651,1.1823132023735877e+23
3.3157856358822616e-06,9.742478369442261e+16,-3.470791858295228e+24,2105.888245965549,1.198288126473494e+23
3.3357856358822615e-06,9.608861230531317e+16,-3.465351253849098e+24,2112.5096835268796,1.2143654658306955e+23
3.3557856358822613e-06,9.478226007622491e+16,-3.4599369758691553e+24,2119.105427366062,1.2305430001971295e+23
3.375785635882261e-06,9.350477162607099e+16,-3.4545495859637796e+24,2125.675759651229,1.2468184934115875e+23
3.395785635882261e-06,9.225522965861752e+16,-3.449189596462161e+24,2132.220956380376,1.2631896934959399e+23
3.4157856358822607e-06,9.10327531328956e+16,-3.443857473632054e+24,2138.741287605347,1.2796543327483452e+23
3.4357856358822605e-06,8.98364955375975e+16,-3.438553640681599e+24,2145.2370176435597,1.2962101278349199e+23
3.4557856358822603e-06,8.86656432625777e+16,-3.433278480561413e+24,2151.708405278402,1.3128547798812296e+23
3.47578563588226e-06,8.75194140611027e+16,-3.4280323385815297e+24,2158.1557039491613,1.3295859745648747e+23
3.49578563588226e-06,8.639705559697702e+16,-3.4228155248567196e+24,2164.579161931247,1.3464013822102771e+23
3.5157856358822597e-06,8.529784407111062e+16,-3.417628316592386e+24,2170.9790225073766,1.3632986578865922e+23
3.5357856358822595e-06,8.422108292249112e+16,-3.412470960222436e+24,2177.355524130382,1.3802754415097777e+23
3.5557856358822593e-06,8.316610159889248e+16,-3.407343673409496e+24,2183.7089005782013,1.3973293579496292e+23
3.575785635882259e-06,8.213225439299091e+16,-3.4022466469170093e+24,2190.039381101545,1.4144580171424105e+23
3.595785635882259e-06,8.111891933985966e+16,-3.397180046362056e+24,2196.3471905647675,1.431659014209995e+23
