t(s),Adsorbed H on surface 1 (H m-2),solute flux surface 1 (H m-2 s-1),Total T surface 1 (K),0 value at [0] (H m-3)
1e-08,11.298908026185499,-28148233.027615376,301.80743866362815,4152427894.8058915
2.05e-08,11.298908026185499,-30245676.50594026,304.65048950960994,4152427894.8058915
3.1525e-08,11.298908026185499,-33164413.39440412,308.37518441749467,4152427894.8058915
4.3101250000000004e-08,11.298908026185499,-37005287.56382298,312.92685961757235,4152427894.8058915
5.5256312500000004e-08,11.298908026185499,-41934084.227924645,318.2879468955374,4152427894.8058915
6.801912812500001e-08,11.298908026185499,-48177476.72175812,324.4584731948957,4152427894.8058915
8.142008453125001e-08,11.298908026185499,-56029180.07917856,331.44875180246675,4152427894.8058915
9.549108875781251e-08,11.298908026185499,-65860233.3078794,339.27562629670604,4152427894.8058915
1.1026564319570314e-07,11.298908026185499,-78131983.97400694,347.9603350225379,4152427894.8058915
1.2577892535548832e-07,11.298908026185499,-93410913.5215979,357.52716673001044,4152427894.8058915
1.4206787162326273e-07,11.298908026185499,-112384524.6277428,368.0025358381182,4152427894.8058915
1.5917126520442587e-07,11.298908026185499,-135877369.24946967,379.4142938096374,4152427894.8058915
1.7712982846464716e-07,2657755.1449213913,-17851405039608.797,391.79117869566664,92995483568012.05
1.9598631988787953e-07,12986369.994594555,-81109697232974.98,405.162347389047,283072516094922.4
2.157856358822735e-07,51256441.99333355,-312209240725577.1,419.556957800714,820676645213238.5
2.357856358822735e-07,180100938.41336152,-1098475349421752.8,434.40490093787275,2264039041041639.0
2.557856358822735e-07,582890382.2738153,-3578001581045543.0,449.51305128105264,5914394146670944.0
2.7578563588227355e-07,1767172882.2873025,-1.0873731378526586e+16,464.8404728859639,1.4667295824986424e+16
2.9578563588227357e-07,5050074172.87122,-3.0964067300197336e+16,480.35123696576187,3.4604629829842996e+16
3.157856358822736e-07,13653490596.89668,-8.294575935001549e+16,496.01360622959606,7.785528098714859e+16
3.357856358822736e-07,35031287874.96426,-2.0983478981216102e+17,511.79941355503433,1.674565374858834e+17
3.5578563588227363e-07,85547715901.01553,-5.032085972777762e+17,527.6835674782519,3.45214077382702e+17
3.7578563588227365e-07,199407717471.71408,-1.1480775582960361e+18,543.6436494679346,6.838321745434972e+17
3.9578563588227367e-07,444899518770.27185,-2.5004847093431895e+18,559.6595807050609,1.3048385430530452e+18
4.157856358822737e-07,952637521357.9741,-5.215435970936022e+18,575.7133429393025,2.404020346702772e+18
4.357856358822737e-07,1962658919429.8293,-1.044864959620303e+19,591.7887422338209,4.2861791635720105e+18
4.5578563588227373e-07,3899962828073.605,-2.0161882562605416e+19,607.87120724212,7.410968537037132e+18
4.7578563588227375e-07,7491363870412.959,-3.756766890614351e+19,623.947615639791,1.2451374136035353e+19
4.957856358822737e-07,13940273690174.95,-6.7754496152129315e+19,640.0061437608235,2.036602222937833e+19
5.157856358822737e-07,25180059102896.14,-1.1853701719842734e+20,656.0361355408722,3.2485957010598207e+19
5.357856358822738e-07,44230711081436.12,-2.015771662040156e+20,672.0279876610316,5.061581621902286e+19
5.557856358822738e-07,75687369230489.03,-3.338204797916741e+20,687.9730483894801,7.71484571421334e+19
5.757856358822738e-07,126372366630384.92,-5.392871882432223e+20,703.8635280853382,1.1519102194591644e+20
5.957856358822738e-07,206184131885114.34,-8.512492073453347e+20,719.692419694493,1.6869885255018906e+20
6.157856358822738e-07,329177379820781.44,-1.314815543848144e+21,735.4534278560831,2.4261362758365918e+20
6.357856358822739e-07,514903906619316.8,-1.9899283157615365e+21,751.1409054689764,3.429957302280651e+20
6.557856358822739e-07,790039102591988.6,-2.9547644915846957e+21,766.7497967532922,4.771441264289638e+20
6.757856358822739e-07,1190304909724567.0,-4.309512210802907e+21,782.2755859927411,6.536875353825418e+20
6.957856358822739e-07,1762679904062406.5,-6.180474677076022e+21,797.7142512667899,8.826283791156024e+20
7.157856358822739e-07,2567855415090996.5,-8.724431749832439e+21,813.0622225831036,1.1753132388171963e+21
7.35785635882274e-07,3682850391687718.0,-1.2133165278328466e+22,828.3163439047465,1.544295250939876e+21
7.55785635882274e-07,5203633284444426.0,-1.6638026102712377e+22,843.473838636655,2.0030444140660885e+21
7.75785635882274e-07,7247513564085213.0,-2.2514385690793072e+22,858.5322781945723,2.565452605822835e+21
7.95785635882274e-07,9954958139632460.0,-3.0085768776396684e+22,873.4895533290567,3.245073905666576e+21
8.15785635882274e-07,1.3490363687012206e+16,-3.972739769528488e+22,888.3438479190096,4.054042112829891e+21
8.357856358822741e-07,1.8041188888852604e+16,-5.186878394408112e+22,903.0936149847388,5.001622895586964e+21
8.557856358822741e-07,2.3814749145662776e+16,-6.699486492029957e+22,917.7375547009432,6.092396635815864e+21
8.757856358822741e-07,3.103194732005978e+16,-8.564499131160204e+22,932.2745942160619,7.324139316747555e+21
8.957856358822741e-07,3.991732396212214e+16,-1.0840881811622938e+23,946.7038691068421,8.685579748018426e+21
9.157856358822741e-07,5.06851382773338e+16,-1.3591785564027086e+23,961.0247063163587,1.0154360447822664e+22
9.357856358822742e-07,6.352180768099344e+16,-1.6883115343480827e+23,975.2366084405146,1.1695697840728086e+22
9.55785635882274e-07,7.856596272550371e+16,-2.0781344318111405e+23,989.3392392426607,1.3262380110334336e+22
9.75785635882274e-07,9.588853677671606e+16,-2.5350426059440464e+23,1003.3324102887269,1.4796782846396112e+22
9.957856358822741e-07,1.1547647004103347e+17,-3.064773710436997e+23,1017.2160686064202,1.6235427785790152e+22
1.0157856358822741e-06,1.3722435193718794e+17,-3.671914938243651e+23,1030.9902852818434,1.7516174872630245e+22
1.0357856358822742e-06,1.6093812623961827e+17,-4.3593593384949595e+23,1044.655244915518,1.8587408917240511e+22
1.0557856358822742e-06,1.8635338010048874e+17,-5.1277796731791763e+23,1058.2112358674103,1.9417682526990884e+22
1.0757856358822742e-06,2.1316762624840333e+17,-5.9752179993366165e+23,1071.6586412272993,2.000350189889158e+22
1.0957856358822742e-06,2.410818980258445e+17,-6.896902211843489e+23,1084.99793045281,2.037270657427828e+22
1.1157856358822742e-06,2.6984315247337334e+17,-7.885382603844211e+23,1098.2296516227484,2.058156098784708e+22
1.1357856358822743e-06,2.9927705700956883e+17,-8.931025277128812e+23,1111.3544242581247,2.070530394156835e+22
1.1557856358822743e-06,3.293020344761598e+17,-1.002281411818931e+24,1124.372932667479,2.0824059573861064e+22
1.1757856358822743e-06,3.599201127816185e+17,-1.1149325998746818e+24,1137.2859197769246,2.1007832047495997e+22
1.1957856358822743e-06,3.9118674598514394e+17,-1.229969032222317e+24,1150.0941814087237,2.1304863365108593e+22
1.2157856358822743e-06,4.231677866759363e+17,-1.3464349956110574e+24,1162.7985609752718,2.1736500520654733e+22
1.2357856358822744e-06,4.5589473846319686e+17,-1.4635506117995431e+24,1175.3999445581244,2.229931435009783e+22
1.2557856358822744e-06,4.893282823048409e+17,-1.580722691234955e+24,1187.8992563441855,2.2972653549065523e+22
1.2757856358822744e-06,5.233358130774277e+17,-1.6975286747789223e+24,1200.2974543934329,2.372828457112971e+22
1.2957856358822744e-06,5.5768364205186125e+17,-1.8136850195684813e+24,1212.5955267145869,2.4538818868567874e+22
1.3157856358822744e-06,5.920408737140037e+17,-1.9290111987473822e+24,1224.7944876269842,2.5382938497024988e+22
1.3357856358822745e-06,6.25990808886766e+17,-2.0433970677532997e+24,1236.895374388595,2.6247116764313373e+22
1.3557856358822745e-06,6.590466683346072e+17,-2.1567771453739414e+24,1248.8992440716595,2.712475907712772e+22
1.3757856358822745e-06,6.906702367253992e+17,-2.2691121779075055e+24,1260.807170668806,2.801410856959831e+22
1.3957856358822745e-06,7.202934824633023e+17,-2.3803767680489427e+24,1272.620242413796,2.891602445414398e+22
1.4157856358822745e-06,7.47343672594697e+17,-2.4905514893535986e+24,1284.3395593022026,2.9832235012600166e+22
1.4357856358822746e-06,7.712719676141148e+17,-2.5996181269887547e+24,1295.966230798402,3.07642200582757e+22
1.4557856358822746e-06,7.91584341281377e+17,-2.707557022626842e+24,1307.5013737162276,3.1712628294816853e+22
1.4757856358822746e-06,8.078724399968321e+17,-2.8143457759660136e+24,1318.9461102615483,3.2677063879133655e+22
1.4957856358822746e-06,8.198411286040577e+17,-2.91995875984215e+24,1330.30156622585,3.3656101393081024e+22
1.5157856358822746e-06,8.273292673188776e+17,-3.024367074163126e+24,1341.5688693206655,3.464743747174824e+22
1.5357856358822747e-06,8.303208352301437e+17,-3.1275387104218163e+24,1352.749147643399,3.564812443084628e+22
1.5557856358822747e-06,8.289447564069617e+17,-3.2294388166607865e+24,1363.8435282657417,3.6654849355830927e+22
1.5757856358822747e-06,8.234634096374655e+17,-3.330030032287071e+24,1374.8531359364692,3.766422776034132e+22
1.5957856358822747e-06,8.142514270242781e+17,-3.4292729011680766e+24,1385.7790918909686,3.867308262427892e+22
1.6157856358822747e-06,8.017676430655127e+17,-3.5271263777312596e+24,1396.622512760357,3.9678682902618154e+22
1.6357856358822748e-06,7.865237041760367e+17,-3.6235484273968917e+24,1407.3845095735228,4.067892222230421e+22
1.6557856358822748e-06,7.690528313435035e+17,-3.7184967027903864e+24,1418.0661868458678,4.1672427592937864e+22
1.6757856358822748e-06,7.498816583874364e+17,-3.811929260618482e+24,1428.6686417489343,4.265859755259138e+22
1.6957856358822748e-06,7.29507162872489e+17,-3.9038052759213713e+24,1439.192963355481,4.363757732266275e+22
1.7157856358822748e-06,7.083797067176279e+17,-3.994085711384204e+24,1449.6402319549268,4.4610184052757475e+22
1.7357856358822749e-06,6.868923056298506e+17,-4.08273390739051e+24,1460.0115184344086,4.557779778071915e+22
1.7557856358822749e-06,6.653755694836017e+17,-4.1697160702238335e+24,1470.3078837210094,4.6542233696023565e+22
1.775785635882275e-06,6.440973389525742e+17,-4.2550016481310464e+24,1480.5303782809913,4.750560943257529e+22
1.795785635882275e-06,6.23265866160135e+17,-4.338563595620032e+24,1490.6800416721444,4.847021825462131e+22
1.815785635882275e-06,6.030353943126812e+17,-4.420378534247233e+24,1500.7579021455988,4.943841583116396e+22
1.835785635882275e-06,5.835131187511094e+17,-4.5004268230456905e+24,1510.764976293693,5.041252529912545e+22
1.855785635882275e-06,5.647667011592381e+17,-4.578692554027119e+24,1520.702268740695,5.139476276072662e+22
1.875785635882275e-06,5.468317151741413e+17,-4.655163488496156e+24,1530.570771873384,5.238718334955191e+22
1.895785635882275e-06,5.2971859609677734e+17,-4.7298309489034915e+24,1540.371465608688,5.339164653189492e+22
1.915785635882275e-06,5.1341883386133965e+17,-4.802689679197294e+24,1550.1053171957476,5.44097983308032e+22
1.935785635882275e-06,4.9791028076574957e+17,-4.873737684525282e+24,1559.7732810499454,5.544306759532801e+22
1.9557856358822747e-06,4.831615438754547e+17,-4.942976058974024e+24,1569.3762986165905,5.649267321019925e+22
1.9757856358822745e-06,4.691355001366954e+17,-5.010408807981294e+24,1578.9152982621029,5.755963917944612e+22
1.9957856358822743e-06,4.557920152101348e+17,-5.076042670223841e+24,1588.3911951906664,5.864481475483077e+22
2.015785635882274e-06,4.430899702706968e+17,-5.139886942220539e+24,1597.804891384457,5.974889715467486e+22
2.035785635882274e-06,4.3098870954486874e+17,-5.201953307622664e+24,1607.1572755656687,6.087245487373213e+22
2.0557856358822737e-06,4.194490195325635e+17,-5.262255672189812e+24,1616.4492231786687,6.201595006909716e+22
2.0757856358822735e-06,4.084337422894171e+17,-5.320810004755378e+24,1625.6815963907284,6.317975897753709e+22
2.0957856358822733e-06,3.979081126873027e+17,-5.377634184038622e+24,1634.8552441098639,6.436418974283817e+22
2.115785635882273e-06,3.8783989540398336e+17,-5.432747850920935e+24,1643.9710020184214,6.556949738572029e+22
2.135785635882273e-06,3.781973562508287e+17,-5.486423946270309e+24,1653.0411073727585,6.6799535944922976e+22
2.1557856358822728e-06,3.689541576408992e+17,-5.538409611588804e+24,1662.054249372225,6.805057353651872e+22
2.1757856358822726e-06,3.6008583639227117e+17,-5.588733730652636e+24,1671.0114979068412,6.932286778494143e+22
2.1957856358822724e-06,3.5156984013642874e+17,-5.63742440546659e+24,1679.9137300672812,7.061661032600715e+22
2.215785635882272e-06,3.4338541940676634e+17,-5.684509853472192e+24,1688.7617682424186,7.1931957645167655e+22
2.235785635882272e-06,3.355134913291297e+17,-5.730018808071146e+24,1697.5564041493708,7.3269042704713825e+22
2.255785635882272e-06,3.2793649548539194e+17,-5.773980592407109e+24,1706.298407313697,7.462798041338473e+22
2.2757856358822716e-06,3.206382523991966e+17,-5.816425096454449e+24,1714.9885289871575,7.600887064281737e+22
2.2957856358822714e-06,3.136038302377536e+17,-5.857382717926217e+24,1723.6275042698417,7.741179997069275e+22
2.3157856358822712e-06,3.068194224336213e+17,-5.896884288460023e+24,1732.2160533976778,7.88368426900426e+22
2.335785635882271e-06,3.0027223716010464e+17,-5.934960994327417e+24,1740.754882597001,8.028406138525438e+22
2.355785635882271e-06,2.939503985401494e+17,-5.971644296196091e+24,1749.2446846961814,8.17535072580247e+22
2.3757856358822706e-06,2.878428588837854e+17,-6.006965850370776e+24,1757.6861395926123,8.324522031833989e+22
2.3957856358822705e-06,2.819393209664574e+17,-6.040957432890313e+24,1766.0799146294908,8.475922951236122e+22
2.4157856358822703e-06,2.7623016926555174e+17,-6.073650867286245e+24,1774.426664914165,8.629555283073707e+22
2.43578563588227e-06,2.7070640908751882e+17,-6.105077956471378e+24,1782.7270335974385,8.785419742224628e+22
2.45578563588227e-06,2.653596125921604e+17,-6.135270419014226e+24,1790.9816521260327,8.943515972561366e+22
2.4757856358822697e-06,2.6018187082150512e+17,-6.164259829915263e+24,1799.1911404761458,9.103842562479828e+22
2.4957856358822695e-06,2.5516575094877306e+17,-6.192077565904364e+24,1807.356107373373,9.266397062852683e+22
2.5157856358822693e-06,2.5030847533998925e+17,-6.218264928484621e+24,1815.4490840214473,9.430071234893358e+22
2.535785635882269e-06,2.4560424698575325e+17,-6.243004714996104e+24,1823.4783303988036,9.59517807014163e+22
2.555785635882269e-06,2.4104596864925072e+17,-6.266481581997855e+24,1831.4523593850806,9.762024517391459e+22
2.5757856358822687e-06,2.3662680298993482e+17,-6.288790819644528e+24,1839.3748896225743,9.930715153576798e+22
2.5957856358822685e-06,2.323403865811152e+17,-6.310001951193001e+24,1847.2483947760973,1.010130410553252e+23
2.6157856358822683e-06,2.281808278184126e+17,-6.330171794568893e+24,1855.0747648792455,1.0273823724972893e+23
2.635785635882268e-06,2.2414265702169885e+17,-6.349349425622009e+24,1862.8555507996107,1.044829455929175e+23
2.655785635882268e-06,2.2022077315670653e+17,-6.367578617203304e+24,1870.5920811016833,1.0624729741837899e+23
2.6757856358822678e-06,2.164103981785756e+17,-6.384899222232e+24,1878.2855267148468,1.0803137232204998e+23
2.6957856358822676e-06,2.127070401477718e+17,-6.401348035494763e+24,1885.9369403737644,1.0983521098728433e+23
2.7157856358822674e-06,2.0910646367831226e+17,-6.416959368292898e+24,1893.5472824219685,1.1165882325814897e+23
2.735785635882267e-06,2.056046659586392e+17,-6.43176545185937e+24,1901.1174386194848,1.1350219362643235e+23
2.755785635882267e-06,2.021978568864269e+17,-6.445796732320741e+24,1908.64823296108,1.1536528518842205e+23
2.775785635882267e-06,1.988824422441602e+17,-6.459082093611745e+24,1916.1404372236666,1.1724804262746653e+23
2.7957856358822666e-06,1.9565500916192682e+17,-6.471649030644124e+24,1923.5947782814635,1.1915039453740115e+23
2.8157856358822664e-06,1.925123133454389e+17,-6.483523787014641e+24,1931.0119438458516,1.2107225527807017e+23
2.8357856358822662e-06,1.8945126770567795e+17,-6.494731466750633e+24,1938.392587061586,1.2301352648630583e+23
2.855785635882266e-06,1.8646893213225962e+17,-6.505296126610966e+24,1945.737330252304,1.2497409832600062e+23
2.875785635882266e-06,1.8356250422282976e+17,-6.515240853537201e+24,1953.0467680196973,1.269538505362716e+23
2.8957856358822657e-06,1.8072931082779696e+17,-6.524587830570949e+24,1960.3214698424827,1.2895265332063409e+23
2.9157856358822655e-06,1.7796680030174115e+17,-6.533358393677882e+24,1967.5619822818044,1.3097036810909245e+23
2.9357856358822653e-06,1.7527253537517386e+17,-6.54157308130821e+24,1974.768830872505,1.33006848217387e+23
2.955785635882265e-06,1.7264418657637146e+17,-6.549251678083989e+24,1981.942521760247,1.3506193942199077e+23
2.975785635882265e-06,1.7007952614483654e+17,-6.556413253687496e+24,1989.0835431307105,1.3713548046542649e+23
2.9957856358822647e-06,1.675764223869552e+17,-6.563076197786869e+24,1996.192366466713,1.3922730350332538e+23
3.0157856358822645e-06,1.6513283443142762e+17,-6.569258251660258e+24,2003.269447661642,1.4133723450239266e+23
3.0357856358822643e-06,1.6274680734766752e+17,-6.574976537043783e+24,2010.3152280117679,1.434650935966264e+23
3.055785635882264e-06,1.604164675949262e+17,-6.580247582625696e+24,2017.3301351056434,1.4561069540777166e+23
3.075785635882264e-06,1.5814001877368915e+17,-6.585087348528231e+24,2024.3145836253964,1.4777384933491004e+23
3.0957856358822638e-06,1.55915737654065e+17,-6.589511249055697e+24,2031.2689760720866,1.4995435981725007e+23
3.1157856358822636e-06,1.5374197045860528e+17,-6.593534173937002e+24,2038.1937034251634,1.5215202657348164e+23
3.1357856358822634e-06,1.516171293793092e+17,-6.597170508251239e+24,2045.089145744429,1.5436664482055245e+23
3.155785635882263e-06,1.495396893105908e+17,-6.600434151192468e+24,2051.9556727215345,1.5659800547425477e+23
3.175785635882263e-06,1.4750818478174022e+17,-6.60333853380443e+24,2058.7936441869692,1.58845895333673e+23
3.195785635882263e-06,1.455212070739608e+17,-6.605896635794565e+24,2065.603410577609,1.6111009725125108e+23
3.2157856358822626e-06,1.4357740150842782e+17,-6.608121001519313e+24,2072.385313369126,1.633903902899826e+23
3.2357856358822624e-06,1.4167546489302125e+17,-6.61002375521957e+24,2079.139685477036,1.6568654986905823e+23
3.2557856358822622e-06,1.3981414311647078e+17,-6.611616615571988e+24,2085.8668516295415,1.679983478990945e+23
3.275785635882262e-06,1.3799222887960986e+17,-6.612910909613777e+24,2092.5671287150103,1.7032555290796917e+23
3.295785635882262e-06,1.3620855955430315e+17,-6.613917586089653e+24,2099.24082610651,1.726679301581474e+23
3.3157856358822616e-06,1.3446201516138648e+17,-6.614647228263398e+24,2105.888245965549,1.750252417562862e+23
3.3357856358822615e-06,1.3275151645966464e+17,-6.615110066230744e+24,2112.5096835268796,1.773972467558175e+23
3.3557856358822613e-06,1.3107602313864174e+17,-6.615315988765889e+24,2119.105427366062,1.7978370125314517e+23
3.375785635882261e-06,1.2943453210823325e+17,-6.61527455472988e+24,2125.675759651229,1.821843584780174e+23
3.395785635882261e-06,1.2782607587923355e+17,-6.614995004065603e+24,2132.220956380376,1.8459896887857836e+23
3.4157856358822607e-06,1.262497210287824e+17,-6.614486268402044e+24,2138.741287605347,1.8702728020157114e+23
3.4357856358822605e-06,1.2470456674550706e+17,-6.613756981287176e+24,2145.2370176435597,1.8946903756810393e+23
3.4557856358822603e-06,1.2318974344941131e+17,-6.612815488067663e+24,2151.708405278402,1.9192398354535906e+23
3.47578563588226e-06,1.2170441148194032e+17,-6.611669855431375e+24,2158.1557039491613,1.943918582146047e+23
3.49578563588226e-06,1.2024775986197933e+17,-6.610327880627587e+24,2164.579161931247,1.9687239923582e+23
3.5157856358822597e-06,1.1881900510385032e+17,-6.60879710037796e+24,2170.9790225073766,1.9936534190922477e+23
3.5357856358822595e-06,1.1741739009363917e+17,-6.607084799491117e+24,2177.355524130382,2.0187041923399696e+23
3.5557856358822593e-06,1.1604218302044654e+17,-6.605198019192015e+24,2183.7089005782013,2.0438736196442334e+23
3.575785635882259e-06,1.146926763593881e+17,-6.603143565176808e+24,2190.039381101545,2.0691589866370037e+23
3.595785635882259e-06,1.1336818590338122e+17,-6.600928015403258e+24,2196.3471905647675,2.0945575575563137e+23
3.6157856358822588e-06,1.1206804984095866e+17,-6.598557727625941e+24,2202.6325495803153,2.120066575743784e+23
