t(s),Adsorbed H on surface 1 (H m-2),solute flux surface 1 (H m-2 s-1),Total T surface 1 (K),0 value at [0] (H m-3)
1e-08,0.11298908026185506,-281482.3302761535,301.80743866362815,41524278.94805894
2.05e-08,0.11298908026185506,-302456.7650594023,304.65048950960994,41524278.94805894
3.1525e-08,0.11298908026185506,-331644.1339440409,308.37518441749467,41524278.94805894
4.3101250000000004e-08,0.11298908026185506,-370052.8756382295,312.92685961757235,41524278.94805894
5.5256312500000004e-08,0.11298908026185506,-419340.84227924614,318.2879468955374,41524278.94805894
6.801912812500001e-08,0.11298908026185506,-481774.76721758075,324.4584731948957,41524278.94805894
8.142008453125001e-08,0.11298908026185506,-560291.8007917851,331.44875180246675,41524278.94805894
9.549108875781251e-08,0.11298908026185506,-658602.3330787935,339.27562629670604,41524278.94805894
1.1026564319570314e-07,0.11298908026185506,-781319.8397400687,347.9603350225379,41524278.94805894
1.2577892535548832e-07,0.11298908026185506,-934109.1352159783,357.52716673001044,41524278.94805894
1.4206787162326273e-07,0.11298908026185506,-1123845.246277427,368.0025358381182,41524278.94805894
1.5917126520442587e-07,0.11298908026185506,-1358773.6924946955,379.4142938096374,41524278.94805894
1.7712982846464716e-07,0.11298908026185506,-1648660.640458667,391.79117869566664,41524278.94805894
1.9598631988787953e-07,0.11298908026185506,-2004918.9227926095,405.162347389047,41524278.94805894
2.157856358822735e-07,0.11298908026185506,-2440693.8715680097,419.556957800714,41524278.94805894
2.357856358822735e-07,0.11298908026185506,-2949103.4726424543,434.40490093787275,41524278.94805894
2.557856358822735e-07,3782393.39394253,-29016921790707.37,449.51305128105264,55539103672871.805
2.7578563588227355e-07,15294178.49588265,-98769712720364.11,464.8404728859639,142573041105486.62
2.9578563588227357e-07,47255622.13187303,-283716223207890.7,480.35123696576187,336901364914562.9
3.157856358822736e-07,130957676.63563597,-759085421138944.0,496.01360622959606,757448744608698.0
3.357856358822736e-07,338777770.5213485,-1916764212853306.8,511.79941355503433,1627896122725439.8
3.5578563588227363e-07,829528309.9914776,-4589153019562792.0,527.6835674782519,3353641593992323.0
3.7578563588227365e-07,1935000322.788114,-1.045591891399008e+16,543.6436494679346,6639358111871840.0
3.9578563588227367e-07,4317323109.250214,-2.2746706929457588e+16,559.6595807050609,1.26625269225149e+16
4.157856358822737e-07,9242511903.940374,-4.739895242110979e+16,575.7133429393025,2.331961285234256e+16
4.357856358822737e-07,19036524578.447693,-9.488304073023176e+16,591.7887422338209,4.1562376768518776e+16
4.5578563588227373e-07,37816608079.40553,-1.829636314101329e+17,607.87120724212,7.1841380203245656e+16
4.7578563588227375e-07,72622471742.51196,-3.4072081859489504e+17,623.947615639791,1.2067176451126211e+17
4.957856358822737e-07,135108014054.95407,-6.142016715819841e+17,640.0061437608235,1.9733276751614714e+17
5.157856358822737e-07,243993363185.70398,-1.0741049863773231e+18,656.0361355408722,3.1470717276418566e+17
5.357856358822738e-07,428516523088.04047,-1.825913688262567e+18,672.0279876610316,4.902600202388134e+17
5.557856358822738e-07,733160818123.3904,-3.0228754886448507e+18,687.9730483894801,7.471474440374527e+17
5.757856358822738e-07,1223964618819.976,-4.882190294138388e+18,703.8635280853382,1.1154362611965527e+18
5.957856358822738e-07,1996738479255.4514,-7.704691945703877e+18,719.692419694493,1.633402399778321e+18
6.157856358822738e-07,3187515339143.66,-1.189821384492803e+19,735.4534278560831,2.348860418330191e+18
6.357856358822739e-07,4985533222635.8125,-1.8004706518244483e+19,751.1409054689764,3.32045562046117e+18
6.557856358822739e-07,7648985163633.178,-2.6731035025838105e+19,766.7497967532922,4.618822351453825e+18
6.757856358822739e-07,11523651827691.604,-3.8983230480513516e+19,782.2755859927411,6.327474198818335e+18
6.957856358822739e-07,17064336841134.898,-5.590380701938003e+19,797.7142512667899,8.543241089061993e+18
7.157856358822739e-07,24858725225206.523,-7.891158507203132e+19,813.0622225831036,1.1376002438270548e+19
7.35785635882274e-07,35652847918541.93,-1.0974328069508553e+20,828.3163439047465,1.4947384460845048e+19
7.55785635882274e-07,50376724209621.29,-1.5049591822263946e+20,843.473838636655,1.9387997818663612e+19
7.75785635882274e-07,70167938995629.484,-2.0366887615322115e+20,858.5322781945723,2.48327012465475e+19
7.95785635882274e-07,96389884825486.72,-2.7220404184773273e+20,873.4895533290567,3.1413312281448694e+19
8.15785635882274e-07,130640199000038.19,-3.595220605563543e+20,888.3438479190096,3.924818989263402e+19
8.357856358822741e-07,174743678168528.22,-4.695519167297905e+20,903.0936149847388,4.842824922843578e+19
8.557856358822741e-07,230722913471666.44,-6.067499458350803e+20,917.7375547009432,5.8999320271157084e+19
8.757856358822741e-07,300739492071223.56,-7.761026938155484e+20,932.2745942160619,7.094142425733093e+19
8.957856358822741e-07,386999485688179.94,-9.831057093926356e+20,946.7038691068421,8.41465894393646e+19
9.157856358822741e-07,491619869914636.75,-1.2337074128501143e+21,961.0247063163587,9.839826237999687e+19
9.357856358822742e-07,616457953984191.9,-1.5342034609783494e+21,975.2366084405146,1.1335688511698202e+20
9.55785635882274e-07,762916412180143.8,-1.8910680406364877e+21,989.3392392426607,1.2855874947608894e+20
9.75785635882274e-07,931744137831257.4,-2.3106988428391072e+21,1003.3324102887269,1.4343284443317636e+20
9.957856358822741e-07,1122870170707317.8,-2.7990720040047723e+21,1017.2160686064202,1.5734410135368502e+20
1.0157856358822741e-06,1335313248444815.8,-3.361301942333263e+21,1030.9902852818434,1.6966283849999506e+20
1.0357856358822742e-06,1567211127434508.5,-4.001129910367086e+21,1044.655244915518,1.7985599240993178e+20
1.0557856358822742e-06,1816000127521582.5,-4.72039200822548e+21,1058.2112358674103,1.87585817315775e+20
1.0757856358822742e-06,2078745947538316.8,-5.518548486466351e+21,1071.6586412272993,1.9279340837287107e+20
1.0957856358822742e-06,2352585377725548.0,-6.392377284194083e+21,1084.99793045281,1.957406813935871e+20
1.1157856358822742e-06,2635196692031033.0,-7.335932295117272e+21,1098.2296516227484,1.96989495247621e+20
1.1357856358822743e-06,2925191243756713.0,-8.340830859190787e+21,1111.3544242581247,1.9731188939470107e+20
1.1557856358822743e-06,3222325611203869.5,-9.396867135427198e+21,1124.372932667479,1.9754750255812664e+20
1.1757856358822743e-06,3527477318885092.0,-1.0492866039166928e+22,1137.2859197769246,1.984447329276455e+20
1.1957856358822743e-06,3842395700351186.0,-1.1617625888299172e+22,1150.0941814087237,2.0053103367283592e+20
1.2157856358822743e-06,4169306745930511.0,-1.2760774932650902e+22,1162.7985609752718,2.040488984591186e+20
1.2357856358822744e-06,4510488619810532.0,-1.3913398494400394e+22,1175.3999445581244,2.08970181831653e+20
1.2557856358822744e-06,4867927935184160.0,-1.50683657663859e+22,1187.8992563441855,2.1507328119524147e+20
1.2757856358822744e-06,5243122402673708.0,-1.6220367097528664e+22,1200.2974543934329,2.2204856717420456e+20
1.2957856358822744e-06,5637036727732602.0,-1.7365732700507001e+22,1212.5955267145869,2.2959502956660494e+20
1.3157856358822744e-06,6050172021021308.0,-1.8502127037358182e+22,1224.7944876269842,2.3748363850489312e+20
1.3357856358822745e-06,6482689662390619.0,-1.962820425892581e+22,1236.895374388595,2.455814622151617e+20
1.3557856358822745e-06,6934537485731957.0,-2.0743284720419025e+22,1248.8992440716595,2.5384542135216033e+20
1.3757856358822745e-06,7405547299233377.0,-2.1847085707219287e+22,1260.807170668806,2.623006623419679e+20
1.3957856358822745e-06,7895494602989701.0,-2.2939518696085938e+22,1272.620242413796,2.7101671777836925e+20
1.4157856358822745e-06,8404125765814769.0,-2.402055177339166e+22,1284.3395593022026,2.8008899566328722e+20
1.4357856358822746e-06,8931163447399014.0,-2.5090127660892983e+22,1295.966230798402,2.8962768593698482e+20
1.4557856358822746e-06,9476300425630756.0,-2.6148123796231418e+22,1307.5013737162276,2.997528830391318e+20
1.4757856358822746e-06,1.003918880280598e+16,-2.719434032545471e+22,1318.9461102615483,3.1059364987374515e+20
1.4957856358822746e-06,1.0619428322504336e+16,-2.8228503865976647e+22,1330.30156622585,3.222890153053805e+20
1.5157856358822746e-06,1.1216555276158618e+16,-2.9250278283246364e+22,1341.5688693206655,3.34989610792177e+20
1.5357856358822747e-06,1.1830032278983524e+16,-3.0259277224408867e+22,1352.749147643399,3.48859292462797e+20
1.5557856358822747e-06,1.2459238724566098e+16,-3.1255075904161837e+22,1363.8435282657417,3.6407649891545245e+20
1.5757856358822747e-06,1.310346164239101e+16,-3.2237221358579397e+22,1374.8531359364692,3.808352898420096e+20
1.5957856358822747e-06,1.3761886752531396e+16,-3.320524122100938e+22,1385.7790918909686,3.993460773893976e+20
1.6157856358822747e-06,1.4433589619690222e+16,-3.4158651348577763e+22,1396.622512760357,4.1983606900868206e+20
1.6357856358822748e-06,1.5117526910008086e+16,-3.5096962628827663e+22,1407.3845095735228,4.425494271621647e+20
1.6557856358822748e-06,1.5812527838704544e+16,-3.6019687208982877e+22,1418.0661868458678,4.6774713552972625e+20
1.6757856358822748e-06,1.651728596724528e+16,-3.692634430256286e+22,1428.6686417489343,4.9570654916422605e+20
1.6957856358822748e-06,1.7230351569987562e+16,-3.78164656659416e+22,1439.192963355481,5.267205982677031e+20
1.7157856358822748e-06,1.7950124845396608e+16,-3.868960079995212e+22,1449.6402319549268,5.610966113244922e+20
1.7357856358822749e-06,1.8674850297159696e+16,-3.954532191022052e+22,1460.0115184344086,5.991547226071744e+20
1.7557856358822749e-06,1.940261265533036e+16,-4.038322864666254e+22,1470.3078837210094,6.41225831237409e+20
1.775785635882275e-06,2.013133474517437e+16,-4.120295263229177e+22,1480.5303782809913,6.876490839799882e+20
1.795785635882275e-06,2.0858777738856104e+16,-4.200416178131826e+22,1490.6800416721444,7.387688618752634e+20
1.815785635882275e-06,2.158254423900106e+16,-4.2786564395180325e+22,1500.7579021455988,7.949312618165115e+20
1.835785635882275e-06,2.230008463957554e+16,-4.3549913012308994e+22,1510.764976293693,8.564800783499984e+20
1.855785635882275e-06,2.3008707184393904e+16,-4.429400797332369e+22,1520.702268740695,9.237523082851548e+20
1.875785635882275e-06,2.370559209309674e+16,-4.5018700648625635e+22,1530.570771873384,9.970732209273677e+20
1.895785635882275e-06,2.438781004552332e+16,-4.5723896260927706e+22,1540.371465608688,1.0767510594143392e+21
1.915785635882275e-06,2.5052345206092452e+16,-4.640955622228529e+22,1550.1053171957476,1.1630714629868311e+21
1.935785635882275e-06,2.5696122829876164e+16,-4.707569989499134e+22,1559.7732810499454,1.2562917249812065e+21
1.9557856358822747e-06,2.6316041323472532e+16,-4.772240567966914e+22,1569.3762986165905,1.356635025514647e+21
1.9757856358822745e-06,2.69090084411361e+16,-4.834981133339491e+22,1578.9152982621029,1.4642847996007287e+21
1.9957856358822743e-06,2.7471981087322948e+16,-4.895811342690842e+22,1588.3911951906664,1.579379418960388e+21
2.015785635882274e-06,2.8002007981082788e+16,-4.954756586378752e+22,1597.804891384457,1.702007377203726e+21
2.035785635882274e-06,2.849627422828704e+16,-5.011847740625895e+22,1607.1572755656687,1.8322031715823657e+21
2.0557856358822737e-06,2.895214665900096e+16,-5.067120818185381e+22,1616.4492231786687,1.969944068678176e+21
2.0757856358822735e-06,2.936721863460608e+16,-5.120616518143381e+22,1625.6815963907284,2.1151479252211356e+21
2.0957856358822733e-06,2.9739352927178492e+16,-5.172379680050087e+22,1634.8552441098639,2.267672208406903e+21
2.115785635882273e-06,3.0066721234664316e+16,-5.222458651975047e+22,1643.9710020184214,2.42731432310645e+21
2.135785635882273e-06,3.0347829096093812e+16,-5.271132494743936e+22,1653.0411073727585,2.5940143415598215e+21
2.1557856358822728e-06,3.058155979440082e+16,-5.31820853300868e+22,1662.054249372225,2.767265563779325e+21
2.1757856358822726e-06,3.0767189129450916e+16,-5.363742648352783e+22,1671.0114979068412,2.946703250209558e+21
2.1957856358822724e-06,3.0904401110611196e+16,-5.4077915094790175e+22,1679.9137300672812,3.1319152603367085e+21
2.215785635882272e-06,3.0993293049957416e+16,-5.450411091141774e+22,1688.7617682424186,3.322450195865898e+21
2.235785635882272e-06,3.1034371716318616e+16,-5.491656068902898e+22,1697.5564041493708,3.517825302046959e+21
2.255785635882272e-06,3.102854076835325e+16,-5.531579203633616e+22,1706.298407313697,3.71753480874727e+21
2.2757856358822716e-06,3.097707996314031e+16,-5.570230782200816e+22,1714.9885289871575,3.9210585882053365e+21
2.2957856358822714e-06,3.08816169406822e+16,-5.607658143312528e+22,1723.6275042698417,4.1278708918360636e+21
2.3157856358822712e-06,3.0744092647545816e+16,-5.643905306072013e+22,1732.2160533976778,4.337448909016567e+21
2.335785635882271e-06,3.0566721663785196e+16,-5.679012710878607e+22,1740.754882597001,4.5492809007052347e+21
2.355785635882271e-06,3.0351948825960924e+16,-5.713017075621097e+22,1749.2446846961814,4.76287368664929e+21
2.3757856358822706e-06,3.010240359217245e+16,-5.745951364324877e+22,1757.6861395926123,4.977759301422191e+21
2.3957856358822705e-06,2.9820853575234596e+16,-5.777844860538888e+22,1766.0799146294908,5.193500677766177e+21
2.4157856358822703e-06,2.951015858517823e+16,-5.80872333386495e+22,1774.426664914165,5.409696262271689e+21
2.43578563588227e-06,2.9173226383637212e+16,-5.838609285207636e+22,1782.7270335974385,5.625983515192525e+21
2.45578563588227e-06,2.881297117425387e+16,-5.8675222545733526e+22,1790.9816521260327,5.842041290466182e+21
2.4757856358822697e-06,2.8432275649753864e+16,-5.895479174526938e+22,1799.1911404761458,6.057591131624306e+21
2.4957856358822695e-06,2.8033957202169428e+16,-5.922494752617473e+22,1807.356107373373,6.272397552686251e+21
2.5157856358822693e-06,2.762088475871771e+16,-5.9482043617760506e+22,1815.4490840214473,6.485221853310129e+21
2.535785635882269e-06,2.719574488491801e+16,-5.972705058633334e+22,1823.4783303988036,6.696153820598203e+21
2.555785635882269e-06,2.6761035808264504e+16,-5.9961230115607046e+22,1831.4523593850806,6.905361678506598e+21
2.5757856358822687e-06,2.6319082706512956e+16,-6.018525431519285e+22,1839.3748896225743,7.112882231245663e+21
2.5957856358822685e-06,2.5872033461909824e+16,-6.0399581229016576e+22,1847.2483947760973,7.318743524202769e+21
2.6157856358822683e-06,2.5421855596006984e+16,-6.060456056162072e+22,1855.0747648792455,7.522984235834922e+21
2.635785635882268e-06,2.497033572087239e+16,-6.0800478697062335e+22,1862.8555507996107,7.725658116079417e+21
2.655785635882268e-06,2.4519081584918624e+16,-6.098758245456466e+22,1870.5920811016833,7.926833988083387e+21
2.6757856358822678e-06,2.4069526449584548e+16,-6.116609329636444e+22,1878.2855267148468,8.126594056934607e+21
2.6957856358822676e-06,2.362293542693003e+16,-6.133621651134287e+22,1885.9369403737644,8.325031527880243e+21
2.7157856358822674e-06,2.3180413384559652e+16,-6.149814743325056e+22,1893.5472824219685,8.522247981959251e+21
2.735785635882267e-06,2.274291403651326e+16,-6.165207575256975e+22,1901.1174386194848,8.718350737441983e+21
2.755785635882267e-06,2.2311249868466876e+16,-6.179818852307565e+22,1908.64823296108,8.913450323359319e+21
2.775785635882267e-06,2.188610258386809e+16,-6.193667223340268e+22,1916.1404372236666,9.107658137344985e+21
2.7957856358822666e-06,2.1468033799458644e+16,-6.206771418809114e+22,1923.5947782814635,9.301084328281322e+21
2.8157856358822664e-06,2.1057495760906292e+16,-6.219150336903306e+22,1931.0119438458516,9.493835924090896e+21
2.8357856358822662e-06,2.0654841889988184e+16,-6.2308230902426796e+22,1938.392587061586,9.686015211529952e+21
2.855785635882266e-06,2.0260337012681764e+16,-6.24180902261031e+22,1945.737330252304,9.87771836552941e+21
2.875785635882266e-06,1.987416715188184e+16,-6.2521277031012725e+22,1953.0467680196973,1.0069034319147631e+22
2.8957856358822657e-06,1.9496448798902884e+16,-6.2617989035292466e+22,1960.3214698424827,1.0260043860738799e+22
2.9157856358822655e-06,1.912723760434093e+16,-6.270842563764274e+22,1967.5619822818044,1.0450818941974332e+22
2.9357856358822653e-06,1.8766536451346744e+16,-6.279278748760315e+22,1974.768830872505,1.064142217853572e+22
2.955785635882265e-06,1.8414302893120108e+16,-6.2871276002954065e+22,1981.942521760247,1.0831906524340582e+22
2.975785635882265e-06,1.80704559517709e+16,-6.294409285848054e+22,1989.0835431307105,1.1022315099892692e+22
2.9957856358822647e-06,1.773488228795261e+16,-6.3011439465361895e+22,1996.192366466713,1.1212681155573438e+22
3.0157856358822645e-06,1.7407441760217782e+16,-6.307351645632529e+22,2003.269447661642,1.1403028151321586e+22
3.0357856358822643e-06,1.7087972400234652e+16,-6.313052318824649e+22,2010.3152280117679,1.1593369935047805e+22
3.055785635882264e-06,1.677629483518336e+16,-6.318265727099143e+22,2017.3301351056434,1.178371100324082e+22
3.075785635882264e-06,1.6472216192139906e+16,-6.32301141288787e+22,2024.3145836253964,1.1974046828463242e+22
3.0957856358822638e-06,1.6175533521346848e+16,-6.327308659913252e+22,2031.2689760720866,1.2164364239760913e+22
3.1157856358822636e-06,1.5886036776222316e+16,-6.331176457003269e+22,2038.1937034251634,1.2354641843368655e+22
3.1357856358822634e-06,1.5603511388000042e+16,-6.334633466009802e+22,2045.089145744429,1.254485047246359e+22
3.155785635882263e-06,1.5327740472220814e+16,-6.337697993852683e+22,2051.9556727215345,1.2734953656057472e+22
3.175785635882263e-06,1.5058506703077918e+16,-6.340387968622689e+22,2058.7936441869692,1.2924908098417158e+22
3.195785635882263e-06,1.4795593889998276e+16,-6.342720919606056e+22,2065.603410577609,1.311466416163907e+22
3.2157856358822626e-06,1.4538788288935578e+16,-6.344713961039036e+22,2072.385313369126,1.3304166345163466e+22
3.2357856358822624e-06,1.4287879678759512e+16,-6.346383779361153e+22,2079.139685477036,1.3493353757100225e+22
3.2557856358822622e-06,1.4042662230926442e+16,-6.347746623707065e+22,2085.8668516295415,1.3682160573224468e+22
3.275785635882262e-06,1.3802935198374946e+16,-6.3488182993593706e+22,2092.5671287150103,1.3870516480408566e+22
3.295785635882262e-06,1.3568503447355812e+16,-6.3496141638748275e+22,2099.24082610651,1.40583471020639e+22
3.3157856358822616e-06,1.3339177853719604e+16,-6.350149125594288e+22,2105.888245965549,1.424557440388626e+22
3.3357856358822615e-06,1.3114775583075644e+16,-6.350437644249987e+22,2112.5096835268796,1.443211707882693e+22
3.3557856358822613e-06,1.2895120272226202e+16,-6.350493733392156e+22,2119.105427366062,1.4617890910757921e+22
3.375785635882261e-06,1.2680042127383992e+16,-6.350330964368983e+22,2125.675759651229,1.4802809116759085e+22
3.395785635882261e-06,1.2469377952910392e+16,-6.349962471608683e+22,2132.220956380376,1.4986782668341742e+22
3.4157856358822607e-06,1.2262971122670346e+16,-6.349400958969796e+22,2138.741287605347,1.5169720592237985e+22
3.4357856358822605e-06,1.2060671504591386e+16,-6.348658706943726e+22,2145.2370176435597,1.5351530251634117e+22
3.4557856358822603e-06,1.1862335347636162e+16,-6.3477475805134745e+22,2151.708405278402,1.5532117608916534e+22
3.47578563588226e-06,1.1667825139148658e+16,-6.346679037491521e+22,2158.1557039491613,1.571138747113844e+22
3.49578563588226e-06,1.147700943940793e+16,-6.345464137179887e+22,2164.579161931247,1.5889243719506317e+22
3.5157856358822597e-06,1.1289762699215148e+16,-6.344113549214084e+22,2170.9790225073766,1.6065589524236134e+22
3.5357856358822595e-06,1.1105965065441692e+16,-6.342637562471346e+22,2177.355524130382,1.6240327546149599e+22
3.5557856358822593e-06,1.0925502178671756e+16,-6.341046093940953e+22,2183.7089005782013,1.6413360126367084e+22
3.575785635882259e-06,1.0748264966374482e+16,-6.3393486974708615e+22,2190.039381101545,1.658458946541716e+22
3.595785635882259e-06,1.0574149434429322e+16,-6.337554572319976e+22,2196.3471905647675,1.6753917793033637e+22
3.6157856358822588e-06,1.0403056459297744e+16,-6.335672571459553e+22,2202.6325495803153,1.6921247529834568e+22
3.6357856358822586e-06,1.0234891582675874e+16,-6.333711209579641e+22,2208.8956746372105,1.7086481442003734e+22
