t(s),Adsorbed H on surface 1 (H m-2),solute flux surface 1 (H m-2 s-1),Total T surface 1 (K),0 value at [0] (H m-3)
1e-08,8446.528285281818,-21069623933.25398,301.80743866362815,3104158347407.313
2.05e-08,8446.528285281818,-22639607356.118362,304.65048950960994,3104158347407.313
3.1525e-08,8446.528285281818,-24824347791.27358,308.37518441749467,3104158347407.313
4.3101250000000004e-08,8446.528285281818,-27699328973.37765,312.92685961757235,3104158347407.313
5.5256312500000004e-08,8446.528285281818,-31388644684.10845,318.2879468955374,3104158347407.313
6.801912812500001e-08,8446.528285281818,-36061964793.51537,324.4584731948957,3104158347407.313
8.142008453125001e-08,546809.4603193053,-2170036136075.6528,331.44875180246675,74222271406879.66
9.549108875781251e-08,2072211.3835647332,-8438028994146.09,339.27562629670604,170411428367636.22
1.1026564319570314e-07,6073347.438865046,-25722884994383.332,347.9603350225379,358887134136860.6
1.2577892535548832e-07,16763258.639881968,-74570445542219.08,357.52716673001044,763918480985618.8
1.4206787162326273e-07,46072182.82921837,-215792956358632.4,368.0025358381182,1658182733280875.0
1.5917126520442587e-07,128155225.83709702,-628945249158817.6,379.4142938096374,3658602059566421.5
1.7712982846464716e-07,361446479.451266,-1840250897322188.5,391.79117869566664,8162951058971654.0
1.9598631988787953e-07,1029864401.0674644,-5371993926911560.0,405.162347389047,1.8319082048742704e+16
2.157856358822735e-07,2948464150.924533,-1.5550689701286864e+16,419.556957800714,4.114311586395829e+16
2.357856358822735e-07,8028101796.393797,-4.26025507559695e+16,434.40490093787275,8.925874419335662e+16
2.557856358822735e-07,20678479237.182014,-1.0984439382913533e+17,449.51305128105264,1.8575292744388813e+17
2.7578563588227355e-07,50667393448.028656,-2.6772618071448307e+17,464.8404728859639,3.714116158585897e+17
2.9578563588227357e-07,118473765310.81613,-6.190032958409583e+17,480.35123696576187,7.147380321389471e+17
3.157856358822736e-07,265031387555.6079,-1.3622294538201354e+18,496.01360622959606,1.3262504574996767e+18
3.357856358822736e-07,568566393572.2479,-2.8627795265706583e+18,511.79941355503433,2.377650115098147e+18
3.5578563588227363e-07,1172406394669.8408,-5.763264651590209e+18,527.6835674782519,4.126461152463028e+18
3.7578563588227365e-07,2329008082111.0693,-1.114752149099581e+19,543.6436494679346,6.946438644578544e+18
3.9578563588227367e-07,4466950959738.803,-2.077402877623077e+19,559.6595807050609,1.1363600400863347e+19
4.157856358822737e-07,8289132349704.51,-3.739522352071718e+19,575.7133429393025,1.8097137916586504e+19
4.357856358822737e-07,14911642245037.008,-6.5178415147603304e+19,591.7887422338209,2.81036418259435e+19
4.5578563588227373e-07,26053441984645.2,-1.1024160062136889e+20,607.87120724212,4.26219171039225e+19
4.7578563588227375e-07,44286473851208.5,-1.8131337646110356e+20,623.947615639791,6.321395634417503e+19
4.957856358822737e-07,73353350162493.22,-2.9052035212374003e+20,640.0061437608235,9.179508364015026e+19
5.157856358822737e-07,118554038177623.72,-4.5429806996206944e+20,656.0361355408722,1.3064251136619122e+20
5.357856358822738e-07,187192137504606.06,-6.944124095763165e+20,672.0279876610316,1.8236625691023206e+20
5.557856358822738e-07,289052724723927.1,-1.039066963032331e+21,687.9730483894801,2.49819142704542e+20
5.757856358822738e-07,436856892420525.4,-1.524060293199789e+21,703.8635280853382,3.359177865079948e+20
5.957856358822738e-07,646594509891623.1,-2.1939296711702518e+21,719.692419694493,4.4333408446473896e+20
6.157856358822738e-07,937590344490377.2,-3.1029961499291644e+21,735.4534278560831,5.7402912690176125e+20
6.357856358822739e-07,1332104763233394.2,-4.316163966854394e+21,751.1409054689764,7.28610523046014e+20
6.557856358822739e-07,1854241519685603.5,-5.909244928275719e+21,766.7497967532922,9.055467270337689e+20
6.757856358822739e-07,2527966904274763.0,-7.96844466471751e+21,782.2755859927411,1.1003573807013749e+21
6.957856358822739e-07,3374191964421649.0,-1.0588473638860848e+22,797.7142512667899,1.3050232820979325e+21
7.157856358822739e-07,4407178042843125.0,-1.3868577784223008e+22,813.0622225831036,1.5079874582882838e+21
7.35785635882274e-07,5630983573428268.0,-1.790574779936041e+22,828.3163439047465,1.6951673101721804e+21
7.55785635882274e-07,7037141551293749.0,-2.27846772253798e+22,843.473838636655,1.852243306311777e+21
7.75785635882274e-07,8604951538592005.0,-2.8564925754381615e+22,858.5322781945723,1.9680346395529495e+21
7.95785635882274e-07,1.030533018243003e+16,-3.5267235969059594e+22,873.4895533290567,2.038076554183773e+21
8.15785635882274e-07,1.210792953167586e+16,-4.286259771701434e+22,888.3438479190096,2.0669118742037075e+21
8.357856358822741e-07,1.3989564014218752e+16,-5.1268439178844335e+22,903.0936149847388,2.0676364464829739e+21
8.557856358822741e-07,1.5940823605007304e+16,-6.035513758536683e+22,917.7375547009432,2.0582491627004667e+21
8.757856358822741e-07,1.7968093224324848e+16,-6.996267434768449e+22,932.2745942160619,2.0560289365141742e+21
8.957856358822741e-07,2.0090218331344616e+16,-7.992312179643492e+22,946.7038691068421,2.072433335353869e+21
9.157856358822741e-07,2.2331648891538692e+16,-9.008218887240159e+22,961.0247063163587,2.110829127420047e+21
9.357856358822742e-07,2.471536482196525e+16,-1.0031389867266068e+23,975.2366084405146,2.1676999409796396e+21
9.55785635882274e-07,2.7258344768871964e+16,-1.1052597511608943e+23,989.3392392426607,2.236036028210503e+21
9.75785635882274e-07,2.997042987517471e+16,-1.2065731500111035e+23,1003.3324102887269,2.3087872241968832e+21
9.957856358822741e-07,3.2855643380437344e+16,-1.3067097191567297e+23,1017.2160686064202,2.3808932438816703e+21
1.0157856358822741e-06,3.591436790999293e+16,-1.4054603437818358e+23,1030.9902852818434,2.449670203356112e+21
1.0357856358822742e-06,3.914518490821149e+16,-1.502705967266753e+23,1044.655244915518,2.5142051110354834e+21
1.0557856358822742e-06,4.254594342321925e+16,-1.5983674075376297e+23,1058.2112358674103,2.574530652027705e+21
1.0757856358822742e-06,4.611416708049912e+16,-1.6923755153817657e+23,1071.6586412272993,2.6310188601132277e+21
1.0957856358822742e-06,4.9847082781543784e+16,-1.7846572485807905e+23,1084.99793045281,2.684076545531371e+21
1.1157856358822742e-06,5.374150132326119e+16,-1.8751318763281925e+23,1098.2296516227484,2.7340500924219193e+21
1.1357856358822743e-06,5.779367001576296e+16,-1.963712300860136e+23,1111.3544242581247,2.7812278613557306e+21
1.1557856358822743e-06,6.199913715067562e+16,-2.050308182144352e+23,1124.372932667479,2.825870366151969e+21
1.1757856358822743e-06,6.635263044289459e+16,-2.1348291854693984e+23,1137.2859197769246,2.86823920776977e+21
1.1957856358822743e-06,7.084794058208089e+16,-2.2171877521161375e+23,1150.0941814087237,2.908617946422964e+21
1.2157856358822743e-06,7.547780110659006e+16,-2.2973013093916283e+23,1162.7985609752718,2.947326033176107e+21
1.2357856358822744e-06,8.023375865871965e+16,-2.3750939976244583e+23,1175.3999445581244,2.9847282488107037e+21
1.2557856358822744e-06,8.510603044151584e+16,-2.450498001602304e+23,1187.8992563441855,3.0212414556991657e+21
1.2757856358822744e-06,9.008334792757536e+16,-2.5234545474427396e+23,1200.2974543934329,3.0573396628664536e+21
1.2957856358822744e-06,9.515278780165301e+16,-2.5939146047719254e+23,1212.5955267145869,3.093557851598261e+21
1.3157856358822744e-06,1.0029959302533149e+17,-2.661839324503829e+23,1224.7944876269842,3.130494682937091e+21
1.3357856358822745e-06,1.0550698896744018e+17,-2.727200240299913e+23,1236.895374388595,3.1688140172838495e+21
1.3557856358822745e-06,1.1075600182553282e+17,-2.789979262554017e+23,1248.8992440716595,3.209245056318783e+21
1.3757856358822745e-06,1.1602528907131512e+17,-2.8501684949608948e+23,1260.807170668806,3.2525808365147657e+21
1.3957856358822745e-06,1.2129099431554707e+17,-2.907769904297898e+23,1272.620242413796,3.299674749220727e+21
1.4157856358822745e-06,1.2652664166004245e+17,-2.9627948736355082e+23,1284.3395593022026,3.3514347327880665e+21
1.4357856358822746e-06,1.3170308705783293e+17,-3.0152636677741724e+23,1295.966230798402,3.408814781287419e+21
1.4557856358822746e-06,1.3678854612195542e+17,-3.0652048373807186e+23,1307.5013737162276,3.47280344879442e+21
1.4757856358822746e-06,1.4174871881097709e+17,-3.112654585205567e+23,1318.9461102615483,3.544409105927954e+21
1.4957856358822746e-06,1.4654703101676378e+17,-3.15765611405303e+23,1330.30156622585,3.62464183355152e+21
1.5157856358822746e-06,1.5114501081151856e+17,-3.200258972018934e+23,1341.5688693206655,3.714492021816469e+21
1.5357856358822747e-06,1.5550281255362944e+17,-3.240518406095705e+23,1352.749147643399,3.8149059804829167e+21
1.5557856358822747e-06,1.5957989492852058e+17,-3.2784947308057124e+23,1363.8435282657417,3.9267591507081204e+21
1.5757856358822747e-06,1.6333584928999174e+17,-3.314252714332482e+23,1374.8531359364692,4.050827821865708e+21
1.5957856358822747e-06,1.6673136270926547e+17,-3.347860980986396e+23,1385.7790918909686,4.1877605718192664e+21
1.6157856358822747e-06,1.6972928671011923e+17,-3.3793914260893754e+23,1396.622512760357,4.338050928429633e+21
1.6357856358822748e-06,1.7229576899720736e+17,-3.408918637788365e+23,1407.3845095735228,4.502012950802132e+21
1.6557856358822748e-06,1.744013931739838e+17,-3.436519320123647e+23,1418.0661868458678,4.679761507319978e+21
1.6757856358822748e-06,1.760222622935506e+17,-3.462271712958765e+23,1428.6686417489343,4.871198947548552e+21
1.6957856358822748e-06,1.7714095780646013e+17,-3.486255007007095e+23,1439.192963355481,5.076009605969795e+21
1.7157856358822748e-06,1.7774730737159286e+17,-3.508548755837703e+23,1449.6402319549268,5.293663139458822e+21
1.7357856358822749e-06,1.7783890366635702e+17,-3.5292322908902516e+23,1460.0115184344086,5.523427116590166e+21
1.7557856358822749e-06,1.77421331419989e+17,-3.5483841495291225e+23,1470.3078837210094,5.764388600340809e+21
1.775785635882275e-06,1.765080800604304e+17,-3.5660815293538955e+23,1480.5303782809913,6.015483770992365e+21
1.795785635882275e-06,1.75120142435458e+17,-3.582399783789918e+23,1490.6800416721444,6.275534005487372e+21
1.815785635882275e-06,1.7328532336315357e+17,-3.597411974055049e+23,1500.7579021455988,6.543286339748269e+21
1.835785635882275e-06,1.7103730255148102e+17,-3.611188490863864e+23,1510.764976293693,6.817455948935478e+21
1.855785635882275e-06,1.6841451237521296e+17,-3.623796755911386e+23,1520.702268740695,7.096768215961537e+21
1.875785635882275e-06,1.6545890056135846e+17,-3.635301008739572e+23,1530.570771873384,7.379998116968394e+21
1.895785635882275e-06,1.622146504384993e+17,-3.645762179643821e+23,1540.371465608688,7.666005000293765e+21
1.915785635882275e-06,1.5872692745322762e+17,-3.655237844461111e+23,1550.1053171957476,7.953761317318573e+21
1.935785635882275e-06,1.5504071134696438e+17,-3.663782252949685e+23,1559.7732810499454,8.242374413424671e+21
1.9557856358822747e-06,1.5119976041958157e+17,-3.671446419410553e+23,1569.3762986165905,8.531101039760224e+21
1.9757856358822745e-06,1.472457395532888e+17,-3.678278262400538e+23,1578.9152982621029,8.819354746394192e+21
1.9957856358822743e-06,1.4321752887471267e+17,-3.6843227798380304e+23,1588.3911951906664,9.106706725607525e+21
2.015785635882274e-06,1.3915071649733546e+17,-3.6896222463443536e+23,1597.804891384457,9.392880969538796e+21
2.035785635882274e-06,1.3507726766070282e+17,-3.694216421036195e+23,1607.1572755656687,9.677744785113051e+21
2.0557856358822737e-06,1.310253542506676e+17,-3.698142755890251e+23,1616.4492231786687,9.961295780477885e+21
2.0757856358822735e-06,1.2701932322150219e+17,-3.7014365969536495e+23,1625.6815963907284,1.0243646419235263e+22
2.0957856358822733e-06,1.2307977961265507e+17,-3.704131372831546e+23,1634.8552441098639,1.0525007154075994e+22
2.115785635882273e-06,1.192237592318305e+17,-3.70625876686916e+23,1643.9710020184214,1.0805669022959625e+22
2.135785635882273e-06,1.1546443991339182e+17,-3.7079263190316086e+23,1653.0411073727585,1.1086701124702775e+22
2.1557856358822728e-06,1.1181262847257014e+17,-3.709079203400275e+23,1662.054249372225,1.136774242089777e+22
2.1757856358822726e-06,1.0827635066892202e+17,-3.709744769015584e+23,1671.0114979068412,1.1649240882271977e+22
2.1957856358822724e-06,1.0486118877661485e+17,-3.709949573551106e+23,1679.9137300672812,1.193165393629212e+22
2.215785635882272e-06,1.0157060207368493e+17,-3.709719005604435e+23,1688.7617682424186,1.2215442715276562e+22
2.235785635882272e-06,9.84062337923201e+16,-3.7090773171302025e+23,1697.5564041493708,1.2501062888987774e+22
2.255785635882272e-06,9.536819919379733e+16,-3.708047687275475e+23,1706.298407313697,1.2788956363365076e+22
2.2757856358822716e-06,9.245535075100429e+16,-3.706652280860219e+23,1714.9885289871575,1.307954438433518e+22
2.2957856358822714e-06,8.966551806429872e+16,-3.7049122978194085e+23,1723.6275042698417,1.3373222099452474e+22
2.3157856358822712e-06,8.699572154266478e+16,-3.7028480147680004e+23,1732.2160533976778,1.367035450185332e+22
2.335785635882271e-06,8.444235997970602e+16,-3.7004788203934166e+23,1740.754882597001,1.3971273632525513e+22
2.355785635882271e-06,8.200137296108565e+16,-3.6978232462056796e+23,1749.2446846961814,1.4276276896731545e+22
2.3757856358822706e-06,7.966837959765659e+16,-3.694898993907207e+23,1757.6861395926123,1.4585626343802797e+22
2.3957856358822705e-06,7.743879543234046e+16,-3.691722960395972e+23,1766.0799146294908,1.4899548760630398e+22
2.4157856358822703e-06,7.53079295622298e+16,-3.688311261204453e+23,1774.426664914165,1.5218236435100231e+22
2.43578563588227e-06,7.327106408882118e+16,-3.684679252999311e+23,1782.7270335974385,1.5541848454738186e+22
2.45578563588227e-06,7.132351799123944e+16,-3.680841555617679e+23,1790.9816521260327,1.587051241680265e+22
2.4757856358822697e-06,6.946069743632667e+16,-3.6768120739907774e+23,1799.1911404761458,1.6204326438203464e+22
2.4957856358822695e-06,6.767813441662225e+16,-3.672604020200258e+23,1807.356107373373,1.6543361366354865e+22
2.5157856358822693e-06,6.597234972372577e+16,-3.668109134950267e+23,1815.4490840214473,1.6885275718593781e+22
2.535785635882269e-06,6.4339558858020984e+16,-3.663367546765458e+23,1823.4783303988036,1.7230791688664516e+22
2.555785635882269e-06,6.27758239922687e+16,-3.658427937659026e+23,1831.4523593850806,1.758062301987574e+22
2.5757856358822687e-06,6.1277293339859304e+16,-3.653319401760197e+23,1839.3748896225743,1.7935027537684365e+22
2.5957856358822685e-06,5.9840268236240024e+16,-3.6480636471260066e+23,1847.2483947760973,1.8294129033913406e+22
2.6157856358822683e-06,5.846123307174115e+16,-3.6426783447658616e+23,1855.0747648792455,1.86579819712774e+22
2.635785635882268e-06,5.7136868159576e+16,-3.6371785206185785e+23,1862.8555507996107,1.9026597359757245e+22
2.655785635882268e-06,5.5864053036307304e+16,-3.631577275271295e+23,1870.5920811016833,1.9399956340172164e+22
2.6757856358822678e-06,5.4639863933358664e+16,-3.6258862120486374e+23,1878.2855267148468,1.977801847895257e+22
2.6957856358822676e-06,5.346156760128166e+16,-3.6201157177841816e+23,1885.9369403737644,2.0160727325689124e+22
2.7157856358822674e-06,5.23266128802128e+16,-3.6142751606800424e+23,1893.5472824219685,2.0548014359676547e+22
2.735785635882267e-06,5.123262095348773e+16,-3.608373037531154e+23,1901.1174386194848,2.093980189501802e+22
2.755785635882267e-06,5.017737493162443e+16,-3.6024170879606435e+23,1908.64823296108,2.133600526465503e+22
2.775785635882267e-06,4.915880921814135e+16,-3.5964143859946604e+23,1916.1404372236666,2.1736534479955642e+22
2.7957856358822666e-06,4.8174998970896696e+16,-3.590371415366788e+23,1923.5947782814635,2.2141295495651057e+22
2.8157856358822664e-06,4.722414987312904e+16,-3.584294132693658e+23,1931.0119438458516,2.2550191171058914e+22
2.8357856358822662e-06,4.630458835548015e+16,-3.578188021316349e+23,1938.392587061586,2.2963121994388994e+22
2.855785635882266e-06,4.541475235657595e+16,-3.57205813776121e+23,1945.737330252304,2.337998662098063e+22
2.875785635882266e-06,4.45531826702487e+16,-3.5659091522301375e+23,1953.0467680196973,2.3800682265179876e+22
2.8957856358822657e-06,4.371851489868586e+16,-3.559745384168001e+23,1960.3214698424827,2.4225104977406424e+22
2.9157856358822655e-06,4.290947201012321e+16,-3.5535708337061376e+23,1967.5619822818044,2.465314983172369e+22
2.9357856358822653e-06,4.212485748522957e+16,-3.547389209606242e+23,1974.768830872505,2.508471104433831e+22
2.955785635882265e-06,4.1363549026582456e+16,-3.541203954202345e+23,1981.942521760247,2.551968203949959e+22
2.975785635882265e-06,4.0624492799458664e+16,-3.535018265745765e+23,1989.0835431307105,2.5957955476075563e+22
2.9957856358822647e-06,3.990669816867157e+16,-3.528835118487104e+23,1996.192366466713,2.6399423245418427e+22
3.0157856358822645e-06,3.920923289467085e+16,-3.5226572807752585e+23,2003.269447661642,2.6843976448971423e+22
3.0357856358822643e-06,3.8531218752039304e+16,-3.516487331410239e+23,2010.3152280117679,2.7291505362261682e+22
3.055785635882264e-06,3.787182753444639e+16,-3.510327674452396e+23,2017.3301351056434,2.774189939045401e+22
3.075785635882264e-06,3.7230277411722456e+16,-3.5041805526622854e+23,2024.3145836253964,2.81950470194348e+22
3.0957856358822638e-06,3.660582960675038e+16,-3.498048059722273e+23,2031.2689760720866,2.865083576542424e+22
3.1157856358822636e-06,3.5997785362145524e+16,-3.4919321513712064e+23,2038.1937034251634,2.9109152125330685e+22
3.1357856358822634e-06,3.5405483169070036e+16,-3.485834655567093e+23,2045.089145744429,2.9569881529442225e+22
3.155785635882263e-06,3.4828296232906292e+16,-3.4797572817782954e+23,2051.9556727215345,3.0032908297565207e+22
3.175785635882263e-06,3.4265630152824524e+16,-3.4737016294917504e+23,2058.7936441869692,3.04981155993443e+22
3.195785635882263e-06,3.371692079447663e+16,-3.4676691960161066e+23,2065.603410577609,3.09653854192146e+22
3.2157856358822626e-06,3.3181632337104716e+16,-3.4616613836483415e+23,2072.385313369126,3.143459852622136e+22
3.2357856358822624e-06,3.2659255478249544e+16,-3.455679506264866e+23,2079.139685477036,3.1905634448796866e+22
3.2557856358822622e-06,3.2149305780982052e+16,-3.4497247953906715e+23,2085.8668516295415,3.2378371454464137e+22
3.275785635882262e-06,3.1651322150154676e+16,-3.4437984057944754e+23,2092.5671287150103,3.285268653437483e+22
3.295785635882262e-06,3.1164865425589188e+16,-3.437901420652218e+23,2099.24082610651,3.332845539253661e+22
3.3157856358822616e-06,3.068951708139114e+16,-3.432034856316785e+23,2105.888245965549,3.38055524395625e+22
3.3357856358822615e-06,3.022487802171908e+16,-3.426199666727745e+23,2112.5096835268796,3.428385079075744e+22
3.3557856358822613e-06,2.9770567464349876e+16,-3.420396747491304e+23,2119.105427366062,3.476322226836585e+22
3.375785635882261e-06,2.9326221904283004e+16,-3.4146269396576294e+23,2125.675759651229,3.5243537407800196e+22
3.395785635882261e-06,2.889149415042662e+16,-3.408891033219837e+23,2132.220956380376,3.5724665467685787e+22
3.4157856358822607e-06,2.8466052429117536e+16,-3.4031897703567e+23,2138.741287605347,3.6206474443570876e+22
3.4357856358822605e-06,2.8049579548857108e+16,-3.3975238484388166e+23,2145.2370176435597,3.668883108516116e+22
3.4557856358822603e-06,2.7641772121202772e+16,-3.391893922816246e+23,2151.708405278402,3.7171600916956486e+22
3.47578563588226e-06,2.72423398332504e+16,-3.386300609403869e+23,2158.1557039491613,3.765464826217874e+22
3.49578563588226e-06,2.6851004767582412e+16,-3.3807444870793346e+23,2164.579161931247,3.8137836269895745e+22
3.5157856358822597e-06,2.646750076594831e+16,-3.375226099907039e+23,2170.9790225073766,3.862102694525242e+22
3.5357856358822595e-06,2.609157283329189e+16,-3.369745959200487e+23,2177.355524130382,3.910408118274046e+22
3.5557856358822593e-06,2.5722976579050136e+16,-3.3643045454343745e+23,2183.7089005782013,3.9586858802438595e+22
3.575785635882259e-06,2.5361477692926972e+16,-3.3589023100166926e+23,2190.039381101545,4.006921858916618e+22
3.595785635882259e-06,2.500685145259172e+16,-3.353539676930354e+23,2196.3471905647675,4.055101833450637e+22
3.6157856358822588e-06,2.4658882260976308e+16,-3.3482170442532165e+23,2202.6325495803153,4.1032114881645855e+22
