t(s),Adsorbed H on surface 1 (H m-2),solute flux surface 1 (H m-2 s-1),Total T surface 1 (K),0 value at [0] (H m-3)
1e-08,1638490.6368356901,-4070551705537.5396,301.5905468738408,605496157286218.1
2.05e-08,5219890.31707774,-14059085957411.936,304.09237158501384,1183135701230170.8
3.1525e-08,11699403.500346694,-33582470815105.035,307.3704200805524,1879251275201934.5
4.3101250000000004e-08,23420530.361881636,-72343680641790.81,311.37588764556574,2937910390810118.5
5.5256312500000004e-08,45691053.52030884,-153727876433649.0,316.09309329310565,4756653136467270.0
6.801912812500001e-08,90678977.27866185,-336161367843297.6,321.5223071656023,8084103123556286.0
8.142008453125001e-08,187236496.2995143,-772285369853841.4,327.6725134728529,1.4430842348834684e+16
9.549108875781251e-08,406390420.6807593,-1878394774770038.2,334.55841050404393,2.6962051875768464e+16
1.1026564319570314e-07,929367579.0972354,-4833936042567398.0,342.1985426069596,5.248456683891234e+16
1.2577892535548832e-07,2233828459.166297,-1.3089615935945068e+16,350.61411562720025,1.0594755393423171e+17
1.4206787162326273e-07,5615158660.860939,-3.70041784646668e+16,359.82818039474114,2.2077140946904973e+17
1.5917126520442587e-07,14672675724.708654,-1.0827486326772864e+17,369.86502390091124,4.727809147542483e+17
1.7712982846464716e-07,39607298071.785065,-3.2512044409939194e+17,380.7496821431245,1.0359953294934162e+18
1.9598631988787953e-07,109769688791.72975,-9.937519536247089e+17,392.50752590081186,2.3129621521261235e+18
2.157856358822735e-07,310476853635.5376,-3.068710936234589e+18,405.16389067253243,5.238654146951326e+18
2.357856358822735e-07,846325469156.8528,-9.045373663620242e+18,418.2172672754292,1.1578995915266617e+19
2.557856358822735e-07,2205909404693.9536,-2.523968400507068e+19,431.4977353418989,2.476606130428216e+19
2.7578563588227355e-07,5520098428129.861,-6.692455833368129e+19,444.96921435113006,5.1298809548726256e+19
2.9578563588227357e-07,13286780939554.393,-1.6901482705907722e+20,458.60004537875096,1.0295254652358605e+20
3.157856358822736e-07,30799279672892.79,-4.073575248361674e+20,472.36227103797404,2.0031548267311215e+20
3.357856358822736e-07,68834338221532.27,-9.389186406100363e+20,486.23108737630844,3.781699010848083e+20
3.5578563588227363e-07,148504358889761.16,-2.073961565700201e+21,500.184407672903,6.933786362157641e+20
3.7578563588227365e-07,309675200242282.7,-4.399704083581248e+21,514.2025071345354,1.2360280434439548e+21
3.9578563588227367e-07,625022842633558.8,-8.982735213356309e+21,528.2677288264304,2.144602390297807e+21
4.157856358822737e-07,1222649604556635.5,-1.7685651139661627e+22,542.3642372371696,3.625840081851798e+21
4.357856358822737e-07,2321137418131541.0,-3.363904697230393e+22,556.4778096228094,5.979476509251777e+21
4.5578563588227373e-07,4281761170887085.0,-6.190615708876691e+22,570.5956577730765,9.626950876524725e+21
4.7578563588227375e-07,7682762962616090.0,-1.1034862644469284e+23,584.7062745866322,1.5140657978976022e+22
4.957856358822737e-07,1.341890033218224e+16,-1.9061850210836838e+23,598.7993010990289,2.326538289191292e+22
5.157856358822737e-07,2.2823770751114284e+16,-3.190198857368449e+23,612.8654105337224,3.4915175862099637e+22
5.357856358822738e-07,3.779987504487003e+16,-5.166775847220661e+23,626.8962066427575,5.111833271174007e+22
5.557856358822738e-07,6.092117159379131e+16,-8.081222992197928e+23,640.8841341349777,7.287878607253988e+22
5.757856358822738e-07,9.545251897860542e+16,-1.2174570037943128e+24,654.8223994003656,1.009437245690082e+23
5.957856358822738e-07,1.4523172845506582e+17,-1.7623596097567968e+24,668.7049000604777,1.3553361335888931e+23
6.157856358822738e-07,2.1440714237689504e+17,-2.448311200303488e+24,682.5261621289944,1.761754167424683e+23
6.357856358822739e-07,3.071048241886098e+17,-3.266810838625097e+24,696.2812837691862,2.2178428570469986e+23
6.557856358822739e-07,4.271475670859852e+17,-4.199489512190116e+24,709.965884798356,2.709908932924393e+23
6.757856358822739e-07,5.779045681610382e+17,-5.225728168139612e+24,723.5760612218136,3.225195300674815e+23
6.957856358822739e-07,7.62249748556099e+17,-6.32897340111177e+24,737.1083441872623,3.753935291371793e+23
7.157856358822739e-07,9.82543002766734e+17,-7.498811139706565e+24,750.5596628396528,4.2890715664819016e+23
7.35785635882274e-07,1.240566657775228e+18,-8.729435658892471e+24,763.9273106304344,4.824728099344323e+23
7.55785635882274e-07,1.5374111952229166e+18,-1.0016919809840966e+25,777.2089146967056,5.35487294924096e+23
7.75785635882274e-07,1.8733530279986831e+18,-1.1357115516504007e+25,790.4024079773677,5.8729186063452816e+23
7.95785635882274e-07,2.247780493257474e+18,-1.2744695899375966e+25,803.506003776854,6.372250128395256e+23
8.15785635882274e-07,2.65921070078262e+18,-1.4173057173933563e+25,816.5181725238194,6.847318566907916e+23
8.357856358822741e-07,3.105413925524912e+18,-1.563466098596831e+25,829.437620503482,7.294895741734572e+23
8.557856358822741e-07,3.583632985714336e+18,-1.712153423419437e+25,842.2632703690501,7.715147828447787e+23
8.757856358822741e-07,4.0908584654202435e+18,-1.8625773381224032e+25,854.994243260625,8.112264232141012e+23
8.957856358822741e-07,4.624102759726374e+18,-2.013996297732026e+25,867.6298423797235,8.49448335586025e+23
9.157856358822741e-07,5.180612026122383e+18,-2.165744927404998e+25,880.1695378846596,8.873500214173645e+23
9.357856358822742e-07,5.7579669786646e+18,-2.3172441767449313e+25,892.6129529868396,9.263399391927273e+23
9.55785635882274e-07,6.354047695278573e+18,-2.467995387762704e+25,904.95985114094,9.679381554739047e+23
9.75785635882274e-07,6.966866539520744e+18,-2.617562915389493e+25,917.2101242332002,1.0136593718523984e+24
9.957856358822741e-07,7.594297809201391e+18,-2.7655520462690584e+25,929.3637816819383,1.0649309443860808e+24
1.0157856358822741e-06,8.23374600350613e+18,-2.911589151290422e+25,941.4209403730795,1.1230551349214855e+24
1.0357856358822742e-06,8.881795015052103e+18,-3.055309533623421e+25,953.3818153611218,1.1892055305034223e+24
1.0557856358822742e-06,9.533872046341296e+18,-3.1963561408739837e+25,965.246711272728,1.2644302406106212e+24
1.0757856358822742e-06,1.018394961603019e+19,-3.3343902508392398e+25,977.0160143561104,1.349622741468372e+24
1.0957856358822742e-06,1.0824302717703088e+19,-3.469114210563475e+25,988.6901851246897,1.4454149757335946e+24
1.1157856358822742e-06,1.1445338557347705e+19,-3.600306423968785e+25,1000.2697515482433,1.5519446679624287e+24
1.1357856358822743e-06,1.2035524077336543e+19,-3.7278691286104033e+25,1011.7553027489741,1.6684517213515245e+24
1.1557856358822743e-06,1.258145767627254e+19,-3.8518876716678287e+25,1023.1474831637101,1.792681539986144e+24
1.1757856358822743e-06,1.306818307295745e+19,-3.9726915594248384e+25,1034.4469871368249,1.9201528177891162e+24
1.1957856358822743e-06,1.347993217693303e+19,-4.0908874222447806e+25,1045.6545539115102,2.0435353962685134e+24
1.2157856358822743e-06,1.380152929031676e+19,-4.207305957002007e+25,1056.7709629897618,2.1526692316533673e+24
1.2357856358822744e-06,1.402046336437692e+19,-4.322801405943558e+25,1067.7970298339094,2.23588661537158e+24
1.2557856358822744e-06,1.4129016705957224e+19,-4.4379190448594145e+25,1078.7336018847438,2.2827812242633643e+24
1.2757856358822744e-06,1.4125351834387313e+19,-4.552589911642055e+25,1089.5815548733126,2.2873695702866222e+24
1.2957856358822744e-06,1.4012959610935693e+19,-4.666063374039136e+25,1100.341789405279,2.2498743132435064e+24
1.3157856358822744e-06,1.3799089470216067e+19,-4.777131957595532e+25,1111.0152277984007,2.1762133606627454e+24
1.3357856358822745e-06,1.349334521660319e+19,-4.884495918549938e+25,1121.6028111551914,2.0758431300925552e+24
1.3557856358822745e-06,1.3107053429511629e+19,-4.987073153161581e+25,1132.1054966542017,1.9592635192202414e+24
1.3757856358822745e-06,1.2653154318121454e+19,-5.084162079141268e+25,1142.5242550446133,1.8360827930931823e+24
1.3957856358822745e-06,1.2146035935083688e+19,-5.175465976259073e+25,1152.8600683299765,1.7139154693890166e+24
1.4157856358822745e-06,1.1600966659023288e+19,-5.261027076920783e+25,1163.113927627986,1.5980276561733903e+24
1.4357856358822746e-06,1.1033178189867846e+19,-5.341120281015814e+25,1173.286831194128,1.4915105202489053e+24
1.4557856358822746e-06,1.0456876173398469e+19,-5.4161454515006145e+25,1183.3797825979311,1.395734565097063e+24
1.4757856358822746e-06,9.8844429505864e+18,-5.486541906245593e+25,1193.3937890413542,1.3108750734800516e+24
1.4957856358822746e-06,9.325963962864736e+18,-5.552733092154691e+25,1203.3298598095855,1.2363764954825806e+24
1.5157856358822746e-06,8.789080550161645e+18,-5.615098271251726e+25,1213.1890048452215,1.1713020350917063e+24
1.5357856358822747e-06,8.279098919408719e+18,-5.673963242884052e+25,1222.9722334374148,1.1145675738696128e+24
1.5557856358822747e-06,7.799263724325045e+18,-5.7296020813157855e+25,1232.6805530181728,1.0650830343750298e+24
1.5757856358822747e-06,7.351113356082212e+18,-5.782243940123306e+25,1242.3149680585166,1.0218288912289461e+24
1.5957856358822747e-06,6.934854423311159e+18,-5.832081291295343e+25,1251.876479057719,9.838912664049047e+23
1.6157856358822747e-06,6.549714452446645e+18,-5.879277735376682e+25,1261.3660816192892,9.504725236885791e+23
1.6357856358822748e-06,6.194249906468188e+18,-5.923974626124359e+25,1270.7847656078056,9.208884626801838e+23
1.6557856358822748e-06,5.86659990322356e+18,-5.96629634988221e+25,1280.1335143810934,8.945589247056333e+23
1.6757856358822748e-06,5.564684819095158e+18,-6.006354374015936e+25,1289.413304092605,8.709957655636869e+23
1.6957856358822748e-06,5.286354421762592e+18,-6.044250267742296e+25,1298.6251030592084,8.497904237144903e+23
1.7157856358822748e-06,5.029491354776103e+18,-6.080077959788239e+25,1307.7698711899018,8.306018394846795e+23
1.7357856358822749e-06,4.792080689792035e+18,-6.113925302796742e+25,1316.8485594712663,8.131461222724915e+23
1.7557856358822749e-06,4.572250359780206e+18,-6.145875280163903e+25,1325.8621095057472,7.971869281204657e+23
1.775785635882275e-06,4.3682408572075105e+18,-6.1762647189970595e+25,1334.8215117755467,7.825492542586171e+23
1.795785635882275e-06,4.1785357440821637e+18,-6.204875122905035e+25,1343.7171619393705,7.690409701246534e+23
1.815785635882275e-06,4.001773140842252e+18,-6.231786573614583e+25,1352.5501041502905,7.565270773227107e+23
1.835785635882275e-06,3.836738808094012e+18,-6.257074140398239e+25,1361.3212878658826,7.448939676928124e+23
1.855785635882275e-06,3.6823545186115005e+18,-6.280808657455749e+25,1370.0316315748883,7.340457566899928e+23
1.875785635882275e-06,3.537664591290386e+18,-6.303057634186575e+25,1378.682033939369,7.239012481852697e+23
1.895785635882275e-06,3.4018220687080914e+18,-6.323885703034531e+25,1387.2733775724173,7.143913926143927e+23
1.915785635882275e-06,3.274075457305631e+18,-6.343354881124577e+25,1395.8065306697872,7.054571891919821e+23
1.935785635882275e-06,3.153756544904058e+18,-6.361524742056925e+25,1404.2823478164628,6.970479663384737e+23
1.9557856358822747e-06,3.04026952893942e+18,-6.3784525392595785e+25,1412.7016704246944,6.891199769311885e+23
1.9757856358822745e-06,2.933081504799922e+18,-6.39419330171119e+25,1421.0653269920333,6.816352522194724e+23
1.9957856358822743e-06,2.831714252924217e+18,-6.408799913530378e+25,1429.3741332670552,6.74560666450037e+23
2.015785635882274e-06,2.7357372047135693e+18,-6.422323184119306e+25,1437.6288923670331,6.678671721672268e+23
2.035785635882274e-06,2.6447614435156204e+18,-6.4348119128424935e+25,1445.8303948712994,6.615291732912288e+23
2.0557856358822737e-06,2.5584345947113733e+18,-6.446312950609197e+25,1453.9794189035647,6.55524009258549e+23
2.0757856358822735e-06,2.4764364687743503e+18,-6.456871259737661e+25,1462.0767302108268,6.498315287138693e+23
2.0957856358822733e-06,2.3984753366800497e+18,-6.466529972862259e+25,1470.123082243261,6.444337355338303e+23
2.115785635882273e-06,2.324284734231089e+18,-6.4753304512627905e+25,1478.119216237665,6.393144934456528e+23
2.135785635882273e-06,2.2536207084548314e+18,-6.483312342759711e+25,1486.0658613058306,6.344592782953551e+23
2.1557856358822728e-06,2.1862594341024916e+18,-6.490513639181284e+25,1493.9637345285707,6.298549692398202e+23
2.1757856358822726e-06,2.121995141024745e+18,-6.496970733330304e+25,1501.8135410556583,6.254896718914759e+23
2.1957856358822724e-06,2.0606383038173107e+18,-6.502718475339102e+25,1509.6159742116752,6.213525678274806e+23
2.215785635882272e-06,2.0020140538224868e+18,-6.507790228286163e+25,1517.3717156075709,6.174337859649816e+23
2.235785635882272e-06,1.9459607806176212e+18,-6.512217922948021e+25,1525.081435257673,6.137242921637275e+23
2.255785635882272e-06,1.892328895806508e+18,-6.516032111566536e+25,1532.7457917017393,6.102157940973385e+23
2.2757856358822716e-06,1.8409797365146324e+18,-6.519262020526073e+25,1540.3654321317144,6.069006589749121e+23
2.2957856358822714e-06,1.7917845896963453e+18,-6.5219356018479406e+25,1547.9409925227515,6.037718421256585e+23
2.3157856358822712e-06,1.7446238213718748e+18,-6.524079583425441e+25,1555.4730977680906,6.0082282480521374e+23
2.335785635882271e-06,1.6993860973690243e+18,-6.525719517937042e+25,1562.9623618173844,5.9804755986123e+23
2.355785635882271e-06,1.6559676841618998e+18,-6.526879830389878e+25,1570.4093878180952,5.954404241221542e+23
2.3757856358822706e-06,1.614271820065837e+18,-6.527583864257201e+25,1577.814768259546,5.929961765574842e+23
2.3957856358822705e-06,1.5742081484327516e+18,-6.527853926186106e+25,1585.1790851192911,5.907099214090653e+23
2.4157856358822703e-06,1.535692205648931e+18,-6.527711329261287e+25,1592.5029100114393,5.885770756174343e+23
2.43578563588227e-06,1.4986449577100608e+18,-6.527176434820043e+25,1599.786804336618,5.865933399702592e+23
2.45578563588227e-06,1.4629923799697874e+18,-6.5262686928210026e+25,1607.0313194332498,5.8475467348549264e+23
2.4757856358822697e-06,1.42866507535517e+18,-6.5250066807766635e+25,1614.236996729873,5.830572706133452e+23
2.4957856358822695e-06,1.3955979269362442e+18,-6.523408141264464e+25,1621.4043678981977,5.814975409009489e+23
2.5157856358822693e-06,1.363777713937846e+18,-6.521163884525558e+25,1628.5092221555778,5.8004554464908645e+23
2.535785635882269e-06,1.333147584094393e+18,-6.5184003589683785e+25,1635.558835501722,5.787079016165355e+23
2.555785635882269e-06,1.3036382157196073e+18,-6.515237397090422e+25,1642.5607044811095,5.774896365769074e+23
2.5757856358822687e-06,1.2751869661456125e+18,-6.511731881314189e+25,1649.5180992165836,5.7639047105025475e+23
2.5957856358822685e-06,1.24773790038233e+18,-6.507922802285995e+25,1656.4331928377326,5.754090449740052e+23
2.6157856358822683e-06,1.221240375988349e+18,-6.503840321669848e+25,1663.3076444343096,5.7454362848604946e+23
2.635785635882268e-06,1.1956479295356813e+18,-6.499509229937048e+25,1670.1428144885424,5.737923426017956e+23
2.655785635882268e-06,1.1709175329523602e+18,-6.4949506515573374e+25,1676.939867833471,5.731532507974349e+23
2.6757856358822678e-06,1.1470090939667712e+18,-6.490183017497141e+25,1683.6998306123278,5.72624404971972e+23
2.6957856358822676e-06,1.1238851015937567e+18,-6.4852226761090105e+25,1690.4236250088484,5.722038712952992e+23
2.7157856358822674e-06,1.1015103579659172e+18,-6.480084304496295e+25,1697.1120919636862,5.718897455741702e+23
2.735785635882267e-06,1.0798517639989138e+18,-6.4747812004601715e+25,1703.7660068477255,5.716801625159982e+23
2.755785635882267e-06,1.058878140854374e+18,-6.469325498382903e+25,1710.3860907413487,5.7157330119746664e+23
2.775785635882267e-06,1.03856007682904e+18,-6.463728334213633e+25,1716.9730188336825,5.715673880814696e+23
2.7957856358822666e-06,1.0188697933764783e+18,-6.4579999750043904e+25,1723.5274268566372,5.7166069841572455e+23
2.8157856358822664e-06,9.997810262043446e+17,-6.452149922922976e+25,1730.04991613239,5.718515565511392e+23
2.8357856358822662e-06,9.812689186744598e+17,-6.446187000367839e+25,1736.5410576144002,5.721383355366824e+23
2.855785635882266e-06,9.63309925509777e+17,-6.4401194207522835e+25,1743.0013951799071,5.725194562321052e+23
2.875785635882266e-06,9.458817253076847e+17,-6.43395484819414e+25,1749.4314483538244,5.729933861041221e+23
2.8957856358822657e-06,9.289631406907734e+17,-6.42770044846018e+25,1755.8317145926562,5.7355863782112765e+23
2.9157856358822655e-06,9.125340651582415e+17,-6.421362932906475e+25,1762.2026712223283,5.7421376772699355e+23
2.9357856358822653e-06,8.965753958696955e+17,-6.414948596729315e+25,1768.5447770997564,5.749573742506231e+23
2.955785635882265e-06,8.810689717194822e+17,-6.408463352536511e+25,1774.8584740510298,5.757880962912726e+23
2.975785635882265e-06,8.659975161572242e+17,-6.401912760025407e+25,1781.1441881267813,5.767046116077315e+23
2.9957856358822647e-06,8.513445842871808e+17,-6.395302052388918e+25,1787.4023307063496,5.7770563523099674e+23
3.0157856358822645e-06,8.370945138410112e+17,-6.388636159946176e+25,1793.633299475658,5.787899179139457e+23
3.0357856358822643e-06,8.23232379669299e+17,-6.381919731399099e+25,1799.8374792986726,5.7995624462706216e+23
3.055785635882264e-06,8.097439514393541e+17,-6.375157153042607e+25,1806.0152429984437,5.812034331060505e+23
3.075785635882264e-06,7.966156542623395e+17,-6.368352566198669e+25,1812.1669520607581,5.8253033245479774e+23
3.0957856358822638e-06,7.83834532002938e+17,-6.361509883098565e+25,1818.2929572710807,5.839358218054348e+23
3.1157856358822636e-06,7.713882130507163e+17,-6.354632801401665e+25,1824.393599293627,5.854188090360003e+23
3.1357856358822634e-06,7.592648783547708e+17,-6.347724817509358e+25,1830.4692091999393,5.869782295453029e+23
3.155785635882263e-06,7.474532315427713e+17,-6.340789238809282e+25,1836.5201089531568,5.886130450839577e+23
3.175785635882263e-06,7.359424709626826e+17,-6.333829194965212e+25,1842.5466118531974,5.903222426400889e+23
3.195785635882263e-06,7.247222635005187e+17,-6.326847648351948e+25,1848.5490229473105,5.921048333779308e+23
3.2157856358822626e-06,7.137827200408658e+17,-6.319847403721222e+25,1854.527639409796,5.939598516273239e+23
3.2357856358822624e-06,7.031143724487963e+17,-6.312831117173465e+25,1860.4827508941669,5.9588635392203036e+23
3.2557856358822622e-06,6.927081519623987e+17,-6.305801304500707e+25,1866.4146398605797,5.978834180846862e+23
3.275785635882262e-06,6.825553688946399e+17,-6.2987603489580816e+25,1872.323581880982,5.999501423562404e+23
3.295785635882262e-06,6.726476935518332e+17,-6.2917105085146485e+25,1878.209845924133,6.020856445677345e+23
3.3157856358822616e-06,6.629771382836013e+17,-6.28465392262825e+25,1884.0736946223603,6.042890613523029e+23
3.3357856358822615e-06,6.535360405862248e+17,-6.277592618584463e+25,1889.9153845217154,6.065595473953755e+23
3.3557856358822613e-06,6.443170471874797e+17,-6.27052851743507e+25,1895.7351663169754,6.088962747210793e+23
3.375785635882261e-06,6.353130990467649e+17,-6.263463439568044e+25,1901.533285072795,6.112984320129744e+23
3.395785635882261e-06,6.265174172094945e+17,-6.2563991099375954e+25,1907.3099804321553,6.137652239672918e+23
3.4157856358822607e-06,6.179234894594063e+17,-6.249337162980138e+25,1913.0654868131255,6.162958706769486e+23
3.4357856358822605e-06,6.0952505771671e+17,-6.242279147239435e+25,1918.8000335948743,6.188896070447057e+23
3.4557856358822603e-06,6.013161061339318e+17,-6.235226529722039e+25,1924.5138452937351,6.2154568222389e+23
3.47578563588226e-06,5.932908498448329e+17,-6.228180700002295e+25,1930.207141730092,6.242633590852336e+23
3.49578563588226e-06,5.85443724325096e+17,-6.221142974094316e+25,1935.8801381867324,6.270419137083966e+23
3.5157856358822597e-06,5.777693753264262e+17,-6.214114598106837e+25,1941.5330455592857,6.298806348968718e+23
3.5357856358822595e-06,5.7026264934847245e+17,-6.207096751695623e+25,1947.1660704992964,6.327788237150209e+23
3.5557856358822593e-06,5.629185846154972e+17,-6.200090551326854e+25,1952.779415550442,6.357357930460709e+23
3.575785635882259e-06,5.5573240252704314e+17,-6.19309705336354e+25,1958.373279278328,6.387508671699358e+23
3.595785635882259e-06,5.4869949955396576e+17,-6.186117256986574e+25,1963.9478563943057,6.418233813598499e+23
