t(s),Adsorbed H on surface 1 (H m-2),solute flux surface 1 (H m-2 s-1),Total T surface 1 (K),0 value at [0] (H m-3)
1e-10,180.75700140443183,-235559846240.3345,300.0708614493425,6945260365410.13
2.0500000000000002e-10,561.0378456266527,-509936457226.6934,300.110340846734,13901660252705.229
3.1525e-10,1160.5832059911131,-824283144441.3292,300.14339657612726,20855714519071.742
4.3101250000000007e-10,2000.470264141869,-1180182623046.917,300.17419751704176,27802895445680.176
5.525631250000001e-10,3103.2915015125527,-1579214768526.3203,300.20438167870145,34741401747067.89
6.801912812500001e-10,4493.33472991515,-2022935204624.545,300.2348581124964,41671621704878.02
8.142008453125001e-10,6196.781318307186,-2512873201883.095,300.2662546517337,48595972537420.64
9.549108875781252e-10,8241.93078089421,-3050538696349.024,300.2990790310936,55518865795671.09
1.1026564319570316e-09,10659.457957315139,-3637436260129.1333,300.3337919648071,62446722520624.83
1.2577892535548832e-09,13482.708871943574,-4275085816177.271,300.3708470225038,69388010845802.1
1.4206787162326274e-09,16748.04197417023,-4965050602056.313,300.41071649740434,76353296912063.8
1.591712652044259e-09,20495.22260435781,-5708973282586.101,300.4539112381419,83355308686667.08
1.7712982846464719e-09,24767.880210615527,-6508621452991.525,300.5009982806225,90409017763856.03
1.9598631988787956e-09,29614.04018117106,-7365944171161.916,300.5526184320171,97531748675185.48
2.1578563588227356e-09,35086.74536395205,-8283141681429.955,300.6095052458322,104743329612582.03
2.3578563588227357e-09,40996.32313096601,-9225076603856.512,300.6700017482769,111796012816949.62
2.557856358822736e-09,47278.609768493916,-10181020258378.238,300.73381430294637,118652330706755.22
2.757856358822736e-09,53926.668602243226,-11149969747496.703,300.8012202829806,125343643287298.55
2.957856358822736e-09,60935.14799334322,-12131307772195.488,300.87249760777235,131897761253612.36
3.1578563588227363e-09,68300.14285203247,-13124755960178.418,300.94792813213985,138339559853629.22
3.3578563588227364e-09,76019.08443260148,-14130337315786.543,301.0278000878996,144691503996819.2
3.5578563588227366e-09,84090.65475579917,-15148346497457.418,301.1124099821861,150974098997943.06
3.757856358822737e-09,92514.72265624872,-16179326847904.053,301.20206414562153,157206279374772.12
3.957856358822737e-09,101292.29901809813,-17224053299612.723,301.29708004337397,163405746368372.75
4.157856358822737e-09,110425.50925586256,-18283520449412.45,301.39778742121547,169589263348196.25
4.357856358822737e-09,119917.58153134695,-19358935244305.824,301.50452933479266,175772916989278.44
4.557856358822737e-09,129772.8495827656,-20451713850601.938,301.6176630953315,181972351043530.72
4.757856358822737e-09,139996.76938884633,-21563482393487.12,301.7375611551752,188202978648213.72
4.9578563588227375e-09,150595.94920812282,-22696081357944.445,301.86461194989965,194480178400605.34
5.157856358822738e-09,161578.1928303968,-23851573537512.453,301.99922070914306,200819478859667.66
5.357856358822738e-09,172952.55616158998,-25032255507623.023,302.1418102450089,207236735697245.7
5.557856358822738e-09,184729.41754270176,-26240672687908.574,302.29282172454526,213748305400212.7
5.757856358822738e-09,196920.56248602847,-27479638145575.062,302.4527154310647,220371219211218.53
5.957856358822738e-09,209539.2838050122,-28752255382390.67,302.621971517773,227123360882509.06
6.157856358822738e-09,222600.4984262674,-30061945443853.176,302.80109075619094,234023651800728.75
6.3578563588227385e-09,236120.88251233462,-31412478793713.723,302.9905952810923,241092247119667.97
6.557856358822739e-09,250119.02690134465,-32808012513647.61,303.1910293330853,248350746714465.62
6.757856358822739e-09,264615.6152961737,-34253133520348.035,303.4029599994907,255822425049824.6
6.957856358822739e-09,279633.62812370283,-35752908645210.99,303.626977953782,263532484444691.03
7.157856358822739e-09,295198.5755495835,-37312942600459.12,303.86369819353564,271508336728653.88
7.357856358822739e-09,311338.7637934346,-38939445066496.78,304.1137607765725,279779918937378.75
7.557856358822738e-09,328085.5996652519,-40639308386375.984,304.37783155474125,288380049506987.0
7.757856358822739e-09,345473.9391621407,-42420197654144.93,304.6566029045977,297344832427607.0
7.957856358822739e-09,363542.48705714225,-44290655346471.484,304.9507944540577,306714118038597.25
8.157856358822739e-09,382334.2557179298,-46260223086089.66,305.2611538039428,316532030634991.06
8.357856358822739e-09,401897.09296052525,-48339583659774.51,305.5884572431976,326847574859856.1
8.557856358822739e-09,422284.2906312614,-50540727065833.75,305.93351045642277,337715335046749.4
8.75785635882274e-09,443555.28789258655,-52877145165603.766,306.2971492222504,349196284332536.25
8.95785635882274e-09,465776.4859565623,-55364060496835.26,306.68024010096605,361358723585694.75
9.15785635882274e-09,489022.19437843055,-58018696020657.664,307.0836811096842,374279374115897.8
9.35785635882274e-09,513375.7331346962,-60860594077023.99,307.508402383273,388044652905265.7
9.55785635882274e-09,538930.7197458809,-63911994691493.42,307.9553668191301,402752164927500.5
9.75785635882274e-09,565792.576890476,-67198285705160.72,308.4255707038184,418512454244618.7
9.95785635882274e-09,594080.3035807869,-70748540113105.64,308.92004431948294,435451064300905.0
1.015785635882274e-08,623928.5623975794,-74596159653998.03,309.4398525278828,453710968557436.3
1.035785635882274e-08,655490.1469723068,-78779648300069.64,309.9860953297913,473455445815477.25
1.055785635882274e-08,688938.9084550934,-83343545119020.62,310.5599083974473,494871490877876.5
1.075785635882274e-08,724473.2378716628,-88339553364143.14,311.1624635776556,518173871371049.9
1.095785635882274e-08,762320.2240271239,-93827912048446.88,311.79496936308084,543609966580710.7
1.1157856358822741e-08,802740.6352146778,-99879068265141.31,312.45867132920006,571465555292272.6
1.1357856358822741e-08,846034.9090569434,-106575723909053.9,313.1548525343328,602071758463905.9
1.1557856358822741e-08,892550.3804540354,-114015350257869.88,313.88483388010314,635813391128328.9
1.1757856358822741e-08,942690.035579251,-122313289446944.27,314.6499744296446,673139038818569.6
1.1957856358822741e-08,996923.153733733,-131606595020623.95,315.45167168080934,714573250377812.4
1.2157856358822742e-08,1055798.2933421975,-142058806870364.44,316.29136179161026,760731335531929.6
1.2357856358822742e-08,1119959.1996182632,-153865912189881.62,317.170519755085,812337377601873.1
1.2557856358822742e-08,1190164.367597862,-167263817904157.38,318.0906595207509,870246226352116.5
1.2757856358822742e-08,1267311.196118607,-182537757172004.97,319.0533340597945,935470432458149.0
1.2957856358822742e-08,1352465.9302382423,-200034180872982.66,320.06013537112943,1009213335434804.5
1.3157856358822742e-08,1446900.930629217,-220175855117698.47,321.1126944254489,1092909836717533.2
1.3357856358822742e-08,1552141.2541892624,-243481112259009.53,322.2126810444021,1188276799300385.5
1.3557856358822743e-08,1670023.1147215262,-270588505423731.7,323.3618037120287,1297375541532310.5
1.3757856358822743e-08,1802767.5621679304,-302288522355646.9,324.56180931561147,1422689570234857.2
1.3957856358822743e-08,1953073.735791608,-339564560660950.94,325.8144828131226,1567221573015160.5
1.4157856358822743e-08,2124237.3952628416,-383646104841786.6,327.1216468244772,1734614821740715.5
1.4357856358822743e-08,2320302.228482744,-436078047036859.0,328.48516114386246,1929305608015802.5
1.4557856358822743e-08,2546253.8325514966,-498811457109004.4,329.90692217043534,2156715242020844.8
1.4757856358822743e-08,2808269.478452606,-574322971496931.0,331.3888622547755,2423492637018446.0
1.4957856358822742e-08,3114041.094272792,-665772526778541.8,332.93294895852495,2737821757158068.5
1.515785635882274e-08,3473194.7400261606,-777212683333460.8,334.54118422474784,3109812470227485.0
1.535785635882274e-08,3897837.756930869,-913867646717533.4,336.21560345660924,3551998944650674.0
1.5557856358822737e-08,4403275.5270707,-1082506835066466.8,337.95827450210277,4079977094202615.5
1.5757856358822736e-08,5008954.447086769,-1291947217540818.2,339.77129654263854,4713222282075880.0
1.5957856358822734e-08,5739707.793034161,-1553731735538809.8,341.656798883439,5476141319466326.0
1.6157856358822733e-08,6627408.713676468,-1883049441776790.2,343.61693964382033,6399429764322342.0
1.635785635882273e-08,7713172.54731043,-2299988727554985.0,345.6539043455695,7521828024311556.0
1.655785635882273e-08,9050303.094727771,-2831251261801905.5,347.7699043977807,8892399644808781.0
1.6757856358822728e-08,10708250.134968974,-3512505481851161.0,349.967175476686,1.0573494899047162e+16
1.6957856358822727e-08,12777946.420549143,-4391631028493544.5,352.2479757991574,1.2644615722596448e+16
1.7157856358822725e-08,15379033.035733948,-5533208560322007.0,354.614584288774,1.520746861661693e+16
1.7357856358822724e-08,18669678.461943448,-7024756082588594.0,357.0692986335032,1.8392586383388456e+16
1.7557856358822722e-08,22859971.788953368,-8985422252127101.0,359.6144332342656,2.23680255089213e+16
1.775785635882272e-08,28230256.59916582,-1.1578146428352976e+16,362.25231704384754,2.7350814485585916e+16
1.795785635882272e-08,35156315.08058999,-1.5026724020893296e+16,364.98529129584904,3.3622053886516172e+16
1.8157856358822718e-08,44144077.19867886,-1.9639830984317268e+16,367.81570712357245,4.1546871030958744e+16
1.8357856358822716e-08,55877610.18533198,-2.5844945580657036e+16,370.7459230689952,5.160083670877855e+16
1.8557856358822715e-08,71285671.4487725,-3.423637796686359e+16,373.77830248220056,6.4404993600857e+16
1.8757856358822713e-08,91634271.64812095,-4.564345108181646e+16,376.9152108119013,8.077237246346563e+16
1.895785635882271e-08,118655762.47168191,-6.122751874310992e+16,380.159012787931,1.0176984523055811e+17
1.915785635882271e-08,154729317.9099968,-8.262031854034147e+16,383.5120694968305,1.2880046709802923e+17
1.935785635882271e-08,203133863.010076,-1.1212165720215226e+17,386.976735351963,1.6371320303372534e+17
1.9557856358822707e-08,268403295.32475188,-1.52982363082753e+17,390.55535495979063,2.089492648680742e+17
1.9757856358822705e-08,356826344.05325747,-2.0980989175667923e+17,394.25025988429667,2.677373975964599e+17
1.9957856358822704e-08,477151186.8820555,-2.891504849382725e+17,398.06376531175835,3.443546044438125e+17
2.0157856358822702e-08,641580218.1333213,-4.0032558096535616e+17,401.99816661837974,4.4447432738217856e+17
2.03578563588227e-08,867176284.3333052,-5.5663443471624154e+17,406.05573584358706,5.756314461075924e+17
2.05578563588227e-08,1177852730.1964462,-7.770841609320859e+17,410.2387180720566,7.478432026427757e+17
2.0757856358822698e-08,1607192017.0958252,-1.0888791195269228e+18,414.5493277278418,9.744380535700069e+17
2.0957856358822696e-08,2202440339.408242,-1.5310028636848668e+18,418.9897447842622,1.2731614724250314e+18
2.1157856358822695e-08,3030170999.549034,-2.159370697274644e+18,423.5621108934904,1.6676501276177382e+18
2.1357856358822693e-08,4184314705.0803204,-3.054237425726231e+18,428.2685254400735,2.1893952574638467e+18
2.1557856358822692e-08,5797544686.865606,-4.3308386154142013e+18,433.1110415229212,2.880354507374261e+18
2.175785635882269e-08,8057159950.987806,-6.154101246186698e+18,438.0884210438075,3.796146375733662e+18
2.195785635882269e-08,11228113783.129494,-8.761355917164691e+18,443.2056622030942,5.011103065637169e+18
2.2157856358822687e-08,15685254401.863731,-1.2493083132392942e+19,448.4648636802756,6.624139463643599e+18
2.2357856358822686e-08,21958932425.514236,-1.783756232477528e+19,453.8678317113067,8.766771130548908e+18
2.2557856358822684e-08,30799384727.976036,-2.549439399549829e+19,459.41629990430243,1.1613702245644526e+19
2.2757856358822683e-08,43267469541.414856,-3.6464769338298188e+19,465.1119348145774,1.5396744742374132e+19
2.295785635882268e-08,60862301634.81955,-5.217942269091361e+19,470.95633120750676,2.042307114475136e+19
2.315785635882268e-08,85700421871.0052,-7.46794678913906e+19,476.9510066093644,2.709908424083774e+19
2.3357856358822678e-08,120766729525.6368,-1.0687116778980536e+20,483.0973960679839,3.5961538136450654e+19
2.3557856358822677e-08,170265030886.96133,-1.5288364346038898e+20,489.39684715201946,4.771798305772651e+19
2.3757856358822675e-08,240106401092.19284,-2.1856929149176624e+20,495.8506151267038,6.329914796754263e+19
2.3957856358822674e-08,338587515546.8374,-3.1220114110897154e+20,502.4598582554552,8.392654053329519e+19
2.4157856358822672e-08,477329846129.1913,-4.4544069320304466e+20,509.2256331955362,1.1119935555402388e+20
2.435785635882267e-08,672575631665.6467,-6.346753880871309e+20,516.1488904698965,1.4720576515907604e+20
2.455785635882267e-08,946969728981.1382,-9.028585571217577e+20,523.2304700064926,1.9466484329658882e+20
2.4757856358822667e-08,1332000239795.7666,-1.2820287600776538e+21,530.4710967423001,2.5710678082780008e+20
2.4957856358822666e-08,1871328205884.704,-1.8167425213950284e+21,537.8713762930922,3.391007038505792e+20
2.5157856358822664e-08,2625311408103.785,-2.568727935205301e+21,545.4317906926324,4.465413437129317e+20
2.5357856358822663e-08,3677123978347.998,-3.623160301968307e+21,553.1526942066894,5.8700804706285165e+20
2.555785635882266e-08,5140997697530.749,-5.097079429412659e+21,561.034309228521,7.702121782091253e+20
2.575785635882266e-08,7173269172173.215,-7.150616681745978e+21,569.0767222633643,1.0085518670392441e+21
2.595785635882266e-08,9987117445617.07,-1.0001884139381798e+22,577.2798800101406,1.3177962968248182e+21
2.6157856358822657e-08,13872128216595.162,-1.394660474837617e+22,585.6435855490827,1.717925297162347e+21
2.6357856358822655e-08,19220134299026.605,-1.938383792874212e+22,594.1674946443918,2.2341538805157646e+21
2.6557856358822654e-08,26559169240433.51,-2.684948679975604e+22,602.8511121713382,2.8981754871593944e+21
2.6757856358822652e-08,36597845413236.45,-3.705966784539797e+22,611.6937886774725,3.7496620069898766e+21
2.695785635882265e-08,50283043825958.51,-5.0966487738461465e+22,620.6947170878108,4.838063019777294e+21
2.715785635882265e-08,68874489181255.61,-6.982928240552575e+22,629.8529295640182,6.224750132833398e+21
2.7357856358822648e-08,94040637353533.39,-9.53051366314887e+22,639.1672945277372,7.985560238303953e+21
2.7557856358822646e-08,127981219869041.48,-1.2956285263189225e+23,648.6365138583002,1.0213788077841493e+22
2.7757856358822645e-08,173582979202981.9,-1.7542573241703965e+23,658.2591202751232,1.3023686201973645e+22
2.7957856358822643e-08,234616401867641.62,-2.3654904586282313e+23,668.0334749151148,1.6554532255188633e+22
2.8157856358822642e-08,315982748799984.56,-3.176390538085446e+23,677.9577651154322,2.0975320352392265e+22
2.835785635882264e-08,424022340679861.7,-4.247213071789865e+23,688.0300024118905,2.6490132316004026e+22
2.855785635882264e-08,566896880680834.2,-5.654667872052599e+23,698.248020763272,3.3344238589971593e+22
2.8757856358822637e-08,755060561394699.5,-7.495851962158927e+23,708.6094750116912,4.183096882742242e+22
2.8957856358822636e-08,1001836760709446.9,-9.89295264685603e+23,719.1118395890429,5.229937703287705e+22
2.9157856358822634e-08,1324119210987688.0,-1.2998821865798962e+24,729.7524074794026,6.516270414970163e+22
2.9357856358822633e-08,1743218519222812.2,-1.7003520679491364e+24,740.5282894470424,8.090761014350309e+22
2.955785635882263e-08,2285876668425719.5,-2.2141923560873106e+24,751.4364135394907,1.0010410545880883e+23
2.975785635882263e-08,2985473426887804.0,-2.870245323593664e+24,762.4735248747731,1.234160551269612e+23
2.995785635882263e-08,3883449138397622.0,-3.7036984447838077e+24,773.6361857216519,1.5161205399184216e+23
3.015785635882263e-08,5030967770018130.0,-4.757190451918229e+24,784.920775881297,1.8557637398179772e+23
3.035785635882263e-08,6490841838903446.0,-6.082024411346834e+24,796.323493378406,2.263195589138178e+23
3.0557856358822633e-08,8339736262500256.0,-7.739468608816547e+24,807.8403554693108,2.749880833878677e+23
3.0757856358822635e-08,1.0670660444208534e+16,-9.802111561864032e+24,819.467199974083,3.3287229450705525e+23
3.095785635882264e-08,1.3595746003570718e+16,-1.2355218201439705e+25,831.1996869390733,4.014116142917499e+23
3.115785635882264e-08,1.7249290296730406e+16,-1.5498009333761574e+25,843.0333006356814,4.821956956787911e+23
3.135785635882264e-08,2.1791021933508604e+16,-1.934475527708406e+25,854.963351900466,5.769599007963825e+23
3.155785635882264e-08,2.7409512553580916e+16,-2.4025536973696916e+25,866.9849808209633,6.875731217899182e+23
3.1757856358822644e-08,3.4325618048760016e+16,-2.968648483403988e+25,879.0931597707742,8.16015622608946e+23
3.1957856358822646e-08,4.279578164036414e+16,-3.6489259710643866e+25,891.2826967966394,9.643442982650271e+23
3.215785635882265e-08,5.311497125900408e+16,-4.460949692731385e+25,903.5482393593029,1.1346426094277972e+24
3.235785635882265e-08,6.561895686607324e+16,-5.42339019161227e+25,915.8842784290151,1.3289525734360373e+24
3.255785635882265e-08,8.068556474285294e+16,-6.5555677714027785e+25,928.285152935517,1.5491867314539627e+24
3.275785635882265e-08,9.873448400410408e+16,-7.87679976411597e+25,940.7450545712943,1.7970191422107487e+24
3.2957856358822655e-08,1.2022515856068312e+17,-9.405533118705992e+25,953.2580329457982,2.073756344093922e+24
3.3157856358822657e-08,1.456522924855911e+17,-1.1158260701508417e+26,965.8180010871944,2.3801919831969497e+24
3.335785635882266e-08,1.7553854791539546e+17,-1.3148246619199333e+26,978.418741287039,2.7164523813879534e+24
3.355785635882266e-08,2.1042414115431638e+17,-1.5384121642376051e+26,991.0539112820834,3.0818444267517105e+24
3.375785635882266e-08,2.5085325704608218e+17,-1.7868451187078402e+26,1003.7170507661983,3.4747211958736133e+24
3.3957856358822664e-08,2.973575028256481e+17,-2.0596418580155617e+26,1016.4015882241747,3.8923837181460013e+24
3.4157856358822666e-08,3.504369889043861e+17,-2.355479548725335e+26,1029.1008480779194,4.3310381127037393e+24
3.435785635882267e-08,4.105400096451707e+17,-2.672137786032326e+26,1041.8080581343268,4.785824896619905e+24
3.455785635882267e-08,4.780426356373235e+17,-3.0065039846730417e+26,1054.5163573228695,5.250931010663679e+24
3.475785635882267e-08,5.532297451803655e+17,-3.3546496244150413e+26,1067.2188037097387,5.719785392693855e+24
3.495785635882267e-08,6.3627905262781e+17,-3.7119772462462385e+26,1079.9083827741636,6.185327237070158e+24
3.5157856358822675e-08,7.272495035626559e+17,-4.0734276166300036e+26,1092.5780159313792,6.640324834143217e+24
3.5357856358822676e-08,8.260750175805484e+17,-4.433727034407975e+26,1105.2205692855912,7.077714799085282e+24
3.555785635882268e-08,9.32564032887463e+17,-4.7876486811833606e+26,1117.8288625951986,7.490928674405446e+24
3.575785635882268e-08,1.0464047392035786e+18,-5.130260718719171e+26,1130.3956784315342,7.874177032016939e+24
3.595785635882268e-08,1.1671753775656525e+18,-5.457137656269112e+26,1142.9137715114098,8.222669331019126e+24
3.6157856358822684e-08,1.2943586149934244e+18,-5.764519097087347e+26,1155.3758781828863,8.532758599962452e+24
3.6357856358822685e-08,1.4273588042274752e+18,-6.049409184633387e+26,1167.7747260428737,8.802010712973e+24
3.655785635882269e-08,1.565520904975837e+18,-6.309618643577028e+26,1180.1030436644548,9.029206278933832e+24
3.675785635882269e-08,1.7081499318071265e+18,-6.543757570475444e+26,1192.3535704112007,9.214287733382977e+24
3.695785635882269e-08,1.8545388124791278e+18,-6.751578201165895e+26,1204.5356192716179,9.358594784100852e+24
3.715785635882269e-08,2.0039696644528192e+18,-6.932818076464468e+26,1216.6247825306662,9.463843840670001e+24
3.7357856358822694e-08,2.1557357076018432e+18,-7.088052038202905e+26,1228.613821685139,9.532697152359387e+24
3.7557856358822696e-08,2.3091554709330007e+18,-7.218387562792058e+26,1240.4956904412097,9.56850585671625e+24
3.77578563588227e-08,2.4635838544840397e+18,-7.325351887208708e+26,1252.2633881300612,9.575118835338659e+24
3.79578563588227e-08,2.618420029779538e+18,-7.410788049197755e+26,1263.9099699065728,9.556699930582961e+24
3.81578563588227e-08,2.773112119907984e+18,-7.476755973999302e+26,1275.4285607548654,9.517549029455757e+24
