t(s),Adsorbed H on surface 1 (H m-2),solute flux surface 1 (H m-2 s-1),Total T surface 1 (K),0 value at [0] (H m-3)
1e-06,382446605.36887634,-72753081398074.53,300.92680630813607,1437506543993337.0
2.05e-06,1647300130.8731985,-694081235914534.6,302.38448476652803,4362578836789182.0
3.1525e-06,3963318370.900555,-1402483198145753.2,304.2941815170386,7249969100502984.0
4.310125e-06,7813994749.2509775,-2365797315892051.5,306.6279059245748,1.0832561153451296e+16
5.52563125e-06,14110392722.197147,-3816938286393574.0,309.3763541917268,1.5772255619361088e+16
6.8019128125e-06,24528437292.74077,-6154096788888358.0,312.5393662137065,2.3037011992486036e+16
8.142008453125e-06,42206832517.97443,-1.0113624236971586e+16,316.12202769366,3.4224998484141684e+16
9.54910887578125e-06,73184810583.34546,-1.7113033570130054e+16,320.1312855405595,5.20993397482024e+16
1.1026564319570314e-05,129438533733.21835,-2.997157693392059e+16,324.5786332638999,8.158300312119325e+16
1.2577892535548829e-05,235428369326.05524,-5.4448175151038824e+16,329.4763979815664,1.3163161434796867e+17
1.4206787162326272e-05,442542394266.2439,-1.0260070791393214e+17,334.83767253527077,2.1884295446292608e+17
1.5917126520442588e-05,861630490819.5941,-2.0025239123184893e+17,340.67620929907486,3.744972445347597e+17
1.771298284646472e-05,1737672846691.913,-4.038406339574159e+17,347.0061416428724,6.584275152312105e+17
1.9598631988787957e-05,3623987219743.578,-8.389315304040315e+17,353.84173639298405,1.1865706930340132e+18
2.1578563588227356e-05,7794350390912.482,-1.789171053642172e+18,361.19717100350437,2.1860245642213868e+18
2.3657491767638723e-05,17228900167583.238,-3.903279716139008e+18,369.0863265042256,4.10548677196468e+18
2.584036635602066e-05,38991739072666.45,-8.678727506765901e+18,377.52259048348157,7.836884788239231e+18
2.8132384673821694e-05,89995439585671.86,-1.959416198966237e+19,386.5186669239634,1.5160027030261627e+19
3.053900390751278e-05,210993603385575.47,-4.475074529255611e+19,396.08639151563005,2.962768758901717e+19
3.306595410288842e-05,500428532450574.94,-1.0297765835958338e+20,406.2365523597217,5.8304657107241574e+19
3.571925180803284e-05,1195361581721520.5,-2.3764504343092445e+20,416.97871692920927,1.1508018149982749e+20
3.850521439843448e-05,2859622812168874.0,-5.464210333134753e+20,428.3210668769542,2.2652387447375964e+20
4.143047511835621e-05,6793639290425869.0,-1.2381797383421598e+21,440.2702428542587,4.40307253170671e+20
4.4501998874274025e-05,1.5805143323694778e+16,-2.7121263809387367e+21,452.8312019627664,8.302686050526385e+20
4.772709881798773e-05,3.5276784269413852e+16,-5.582092940676177e+21,466.0070908361031,1.4795291278280043e+21
5.111345375888712e-05,7.401222645457894e+16,-1.0521642405199933e+22,479.79913764408826,2.433937983121615e+21
5.4669126446831475e-05,1.4463544638128864e+17,-1.8066655141210295e+22,494.20656653043955,3.6834940772394205e+21
5.8402582769173055e-05,2.6449558665613616e+17,-2.8710339282216505e+22,509.22653812455826,5.215234152575425e+21
6.232271190763171e-05,4.5770099207054195e+17,-4.313168084626551e+22,524.854119792808,7.059462036350918e+21
6.64388475030133e-05,7.575613641330322e+17,-6.22300494034997e+22,541.082289194298,9.281320010512012e+21
7.076078987816397e-05,1.2084504894521303e+18,-8.705400877614558e+22,557.9019744585582,1.195979371928236e+22
7.529882937207217e-05,1.8659270131992381e+18,-1.1874344921506401e+23,575.3021338864418,1.5177321185707498e+22
8.006377084067578e-05,2.7936748260146673e+18,-1.5843910130550643e+23,593.2698774732709,1.90259664115723e+22
8.506695938270958e-05,4.057485303108315e+18,-2.0714420556052973e+23,611.7906317525945,2.366994936947869e+22
9.032030735184505e-05,5.720474443666855e+18,-2.6562171418824297e+23,630.8483484562839,2.954539694397377e+22
9.583632271943731e-05,7.84480282335684e+18,-3.343683814636373e+23,650.4257562892346,3.784570059223386e+22
0.00010162813885540918,1.0496148546890717e+19,-4.134408806729503e+23,670.504653744756,5.1878387024523015e+22
0.00010770954579817965,1.372449839226725e+19,-5.0120675643827746e+23,691.0662393749565,8.30299643921198e+22
0.00011409502308808864,1.715613632635687e+19,-5.86982738432663e+23,712.0914743297017,1.8746728226767687e+23
0.00012079977424249307,1.8033304882172174e+19,-6.945317041588088e+23,733.5614703549919,2.9175886081820844e+23
0.00012718525153240207,1.7971769485605081e+19,-8.232118159258764e+23,753.468290579817,3.1113514603603814e+23
0.00013389000268680651,1.7795111932283298e+19,-9.583962029674457e+23,773.8000933338973,3.0555045258846434e+23
0.00014092999139893116,1.7570072877800325e+19,-1.0970164675599777e+24,794.5463807333944,2.910040217883641e+23
0.00014832197954666205,1.7286770303053406e+19,-1.2394924308984655e+24,815.6969226756769,2.709925686055726e+23
0.0001560835671017795,1.6912718191970628e+19,-1.3857699914728636e+24,837.2424018389409,2.4602279285668558e+23
0.0001642332340346528,1.637613171309759e+19,-1.5353469292743477e+24,859.1748203553431,2.1535920255754326e+23
0.0001727903843141698,1.5504409619388938e+19,-1.687438387431431e+24,881.4878269457241,1.775242085255471e+23
0.00018177539210766262,1.397312682208254e+19,-1.8403766943000962e+24,904.1769921522039,1.3477947869533305e+23
0.0001912096502908301,1.1864590510498955e+19,-1.9911125079778782e+24,927.2400348577029,1.0113103479389599e+23
0.00020111562138315595,9.805035589538423e+18,-2.1395192303102954e+24,950.6769972799142,8.144291319098266e+22
0.00021111562138315595,8.144055090071693e+18,-2.2805099777784887e+24,973.597626262945,7.046525361061964e+22
0.00022111562138315595,6.856486778931167e+18,-2.412971640336209e+24,995.8317918160225,6.37908170125537e+22
0.00023111562138315595,5.847779304944489e+18,-2.5368836962671336e+24,1017.4283359405189,5.93251888881257e+22
0.00024111562138315595,5.043273821938651e+18,-2.6522935566185077e+24,1038.432283646531,5.6104513087659085e+22
0.000251115621383156,4.3915721775548836e+18,-2.758696806450997e+24,1058.8513750826203,5.363894582549481e+22
0.000261115621383156,3.859385382304017e+18,-2.8517856929319864e+24,1078.4937169960872,5.161607953626364e+22
0.000271115621383156,3.418239613416086e+18,-2.936178228311755e+24,1097.5526703250998,4.994139209653568e+22
0.00028111562138315605,3.048158695201493e+18,-3.0132473248504954e+24,1116.1029735049106,4.8526976085206535e+22
0.0002911156213831561,2.7345615233898685e+18,-3.083777988483622e+24,1134.1945772712536,4.731163166891147e+22
0.0003011156213831561,2.4665022025732813e+18,-3.148341169297997e+24,1151.865910710509,4.6252928334363326e+22
0.00031111562138315613,2.235597877090036e+18,-3.207405994880138e+24,1169.1484152412838,4.5321009450811704e+22
0.00032111562138315616,2.0353250026510003e+18,-3.261383109780588e+24,1186.068704153281,4.449450396300841e+22
0.0003311156213831562,1.8605377294264627e+18,-3.310643861259189e+24,1202.6497954749468,4.375786174449533e+22
0.0003411156213831562,1.7071288888825782e+18,-3.3555296599310016e+24,1218.9118999257273,4.309959515869136e+22
0.00035111562138315624,1.5717860662556413e+18,-3.3963569607753004e+24,1234.8729640216693,4.251109758378506e+22
0.00036111562138315626,1.4518128502081283e+18,-3.433420166535977e+24,1250.549064818435,4.198583473727536e+22
0.0003711156213831563,1.3449957673742605e+18,-3.4669934977943496e+24,1265.954708175629,4.151878136097364e+22
0.0003811156213831563,1.249503849817179e+18,-3.4973323257980726e+24,1281.1030608504514,4.11060224224378e+22
0.00039111562138315634,1.1638118976578624e+18,-3.524674210328521e+24,1296.0061353031344,4.074446657757799e+22
0.00040111562138315637,1.0866439987676637e+18,-3.549239763909846e+24,1310.6749395932604,4.043165092246433e+22
0.0004111156213831564,1.016915602234727e+18,-3.5712333978730495e+24,1325.1196008212885,4.016553230953006e+22
0.0004211156213831564,9.537153637042337e+17,-3.5908439913955674e+24,1339.3494680850665,3.994445619062458e+22
0.00043111562138315645,8.962635421489052e+17,-3.608245497201074e+24,1353.3731992847627,3.976701353092789e+22
0.00044111562138315647,8.438921196687507e+17,-3.6235974977892945e+24,1367.198834995903,3.963198885810892e+22
0.0004511156213831565,7.960262133007104e+17,-3.6370457305490917e+24,1380.8338618505595,3.9538309952166204e+22
0.0004611156213831565,7.521689615160397e+17,-3.648722593881652e+24,1394.285267307932,3.948500878897044e+22
0.00047111562138315655,7.118891929532426e+17,-3.6587476498732484e+24,1407.559587286513,3.9471191249894284e+22
0.0004811156213831566,6.748113085702045e+17,-3.6672281383818e+24,1420.6629478252144,3.949601360989048e+22
0.0004911156213831566,6.406069357871406e+17,-3.674259516035429e+24,1433.601101709961,3.955866434037477e+22
0.0005011156213831566,6.089880098245431e+17,-3.679926031307182e+24,1446.379460824961,3.965835013624125e+22
0.0005111156213831567,5.797010109911268e+17,-3.684301343667447e+24,1459.003124849811,3.979428534007544e+22
0.0005211156213831567,5.5252214310996256e+17,-3.687449191112599e+24,1471.4769068150645,3.996568412348034e+22
0.0005311156213831567,5.272532819072408e+17,-3.689424106456691e+24,1483.805355942445,4.017175491845499e+22
0.0005411156213831567,5.037185561787446e+17,-3.690272178980892e+24,1495.9927781265865,4.04116966875212e+22
0.0005511156213831568,4.817614512118856e+17,-3.6900318546417363e+24,1508.0432543590048,4.068469669154727e+22
0.0005611156213831568,4.61242344993559e+17,-3.6887347652542523e+24,1519.960657349158,4.098992946730109e+22
0.0005711156213831568,4.42036404458223e+17,-3.68640657502358e+24,1531.7486665597798,4.132655676844832e+22
0.0005811156213831568,4.240317823910073e+17,-3.683067831551879e+24,1543.4107818424736,4.16937282578859e+22
0.0005911156213831569,4.0712806632802515e+17,-3.6787348079850975e+24,1554.9503358335626,4.209058276850935e+22
0.0006011156213831569,3.9123493944842246e+17,-3.673420323218475e+24,1566.3705052484634,4.2516249975325905e+22
0.0006111156213831569,3.7627102045945043e+17,-3.66713452794543e+24,1577.6743211945093,4.296985234514837e+22
0.0006211156213831569,3.6216285516999974e+17,-3.659885645683486e+24,1588.8646786066545,4.3450507251415595e+22
0.000631115621383157,3.488440370897899e+17,-3.651680659606979e+24,1599.944344897322,4.395732916118868e+22
0.000641115621383157,3.362544381856438e+17,-3.6425259379243405e+24,1610.9159679003922,4.448943181911998e+22
0.000651115621383157,3.243395340354856e+17,-3.6324277925370246e+24,1621.7820831797032,4.504593036919321e+22
0.000661115621383157,3.1304981017435514e+17,-3.621392967700306e+24,1632.5451207641245,4.56259433692438e+22
0.0006711156213831571,3.023402385288112e+17,-3.609429057289002e+24,1643.2074113640972,4.622859466571015e+22
0.0006811156213831571,2.9216981457034586e+17,-3.5965448509884497e+24,1653.7711921183384,4.68530151067489e+22
0.0006911156213831571,2.82501147252516e+17,-3.582750611238423e+24,1664.238611913983,4.749834408084275e+22
0.0007011156213831572,2.733000949854087e+17,-3.568058284029042e+24,1674.6117363187632,4.816373087544081e+22
0.0007111156213831572,2.6453544188934813e+17,-3.5524816476721307e+24,1684.8925521596693,4.884833585610572e+22
0.0007211156213831572,2.5617860939378525e+17,-3.5360364044517014e+24,1695.0829717789668,4.955133147126401e+22
0.0007311156213831572,2.4820339893665005e+17,-3.5187402206048997e+24,1705.1848369952259,5.027190309110376e+22
0.0007411156213831573,2.405857620981276e+17,-3.5006127204193615e+24,1715.1999227942674,5.100924969160189e+22
0.0007511156213831573,2.3330359499055392e+17,-3.481675440378203e+24,1725.1299407724157,5.176258439624478e+22
0.0007611156213831573,2.263365541388194e+17,-3.461951749266449e+24,1734.9765423522892,5.253113488888054e+22
0.0007711156213831573,2.1966589143641e+17,-3.4414667399997653e+24,1744.7413217894,5.331414371144071e+22
0.0007811156213831574,2.1326834864523318e+17,-3.42032080256294e+24,1754.4401146549992,5.411324481879344e+22
0.0007911156213831574,2.071346243534792e+17,-3.398457472011956e+24,1764.0591470371173,5.492521758892525e+22
0.0008011156213831574,2.0124974341039453e+17,-3.3759093813116435e+24,1773.6002665624321,5.57494224456696e+22
0.0008111156213831574,1.9559992064278566e+17,-3.352708373603327e+24,1783.0649871135759,5.658518275646954e+22
0.0008211156213831575,1.9017238806837776e+17,-3.328886763950514e+24,1792.4547205675458,5.743182673881541e+22
0.0008311156213831575,1.8495529294011725e+17,-3.3044774110019357e+24,1801.7708130165186,5.828869326066712e+22
0.0008411156213831575,1.7993761428964986e+17,-3.279513632506687e+24,1811.014557875891,5.9155133669582255e+22
0.0008511156213831575,1.7510908984375514e+17,-3.2540290779327024e+24,1820.1872025879711,6.00305124932753e+22
0.0008611156213831576,1.704601508454783e+17,-3.2280575880939845e+24,1829.2899528430828,6.091420769434629e+22
0.0008711156213831576,1.659818635184625e+17,-3.2016330532457083e+24,1838.3239756217376,6.180561071186671e+22
0.0008811156213831576,1.6166587631484125e+17,-3.174789275152789e+24,1847.2904015950646,6.270412638865868e+22
0.0008911156213831577,1.5750437227544835e+17,-3.147559836128895e+24,1856.1903271331007,6.3609172831875914e+22
0.0009011156213831577,1.5349002594111946e+17,-3.119977976795815e+24,1865.024816051434,6.452018123269963e+22
0.0009111156213831577,1.4961596433096304e+17,-3.0920764835849484e+24,1873.7949011700325,6.543659566022458e+22
0.0009211156213831577,1.4587573156343296e+17,-3.063887586529189e+24,1882.5015857284889,6.635787283875541e+22
0.0009311156213831578,1.4226325674492472e+17,-3.0354428675702256e+24,1891.145844687215,6.728348191466925e+22
0.0009411156213831578,1.3877282479291584e+17,-3.006773179364623e+24,1899.7286259337623,6.8212904216792454e+22
0.0009511156213831578,1.353990498970467e+17,-2.977908574394017e+24,1908.2508514077308,6.914563301292512e+22
0.0009611156213831578,1.3213685135319547e+17,-2.948878244057921e+24,1916.713418155453,7.008117326460002e+22
0.0009711156213831579,1.2898143153427955e+17,-2.919710467321297e+24,1925.1171993212938,7.1019041381171065e+22
0.0009811156213831579,1.2592825578585643e+17,-2.890432568427429e+24,1933.4630450837149,7.1958764974567825e+22
0.000991115621383158,1.2297303405769434e+17,-2.8610708831240703e+24,1941.751783539396,7.289988261499316e+22
0.001001115621383158,1.2011170410169755e+17,-2.8316507328259825e+24,1949.9842215402105,7.384194358813341e+22
0.001011115621383158,1.1734041608426822e+17,-2.8021964061186353e+24,1958.161145487136,7.478450765430582e+22
0.001021115621383158,1.1465551847690584e+17,-2.772731147001716e+24,1966.2833220848777,7.572714480991196e+22
0.001031115621383158,1.1205354510329282e+17,-2.7432771492691364e+24,1974.3514990586218,7.666943505106914e+22
0.001041115621383158,1.0953120323329998e+17,-2.71385555643868e+24,1982.3664058357233,7.76109681396008e+22
0.001051115621383158,1.0708536262536125e+17,-2.6844864666658056e+24,1990.3287541961317,7.855134337184438e+22
0.001061115621383158,1.0471304542945651e+17,-2.6551889420869254e+24,1998.2392388910453,7.949016934978385e+22
0.0010711156213831581,1.0241141687093296e+17,-2.6259810220786236e+24,2006.0985382343663,8.042706375520298e+22
0.0010811156213831581,1.001777766444627e+17,-2.5968797399321143e+24,2013.9073146655312,8.136165312622078e+22
0.0010911156213831582,9.80095509533029e+16,-2.5679011424929726e+24,2021.6662152897345,8.229357263732865e+22
0.0011011156213831582,9.590428513720949e+16,-2.5390603123205714e+24,2029.3758723909132,8.322246588160911e+22
0.0011111156213831582,9.385963683606635e+16,-2.510371391984366e+24,2037.0369039249724,8.41479846566684e+22
0.0011211156213831583,9.187336964318915e+16,-2.481847610119476e+24,2044.6499139899736,8.506978875334548e+22
0.0011311156213831583,8.994334720561078e+16,-2.4535013089141085e+24,2052.2154932777316,8.598754574810362e+22
0.0011411156213831583,8.806752773383102e+16,-2.425343972714924e+24,2059.734219504226,8.690093079835517e+22
0.0011511156213831583,8.624395888596534e+16,-2.39738625748513e+24,2067.2066578246095,8.78096264420231e+22
0.0011611156213831584,8.44707729960168e+16,-2.3696380208543514e+24,2074.633361228228,8.871332240014915e+22
0.0011711156213831584,8.274618261748832e+16,-2.342108352548552e+24,2082.0148709193086,8.961171538386928e+22
0.0011811156213831584,8.106847635720198e+16,-2.3148056049970114e+24,2089.351716681967,9.050450890539051e+22
0.0011911156213831584,7.943601497629462e+16,-2.2877374239409814e+24,2096.6444172299766,9.139141309304943e+22
0.0012011156213831585,7.784722773740322e+16,-2.2609107788913713e+24,2103.893480542433,9.227214451071086e+22
0.0012111156213831585,7.630060897887262e+16,-2.234331993303965e+24,2111.0994041873314,9.314642598200868e+22
0.0012211156213831585,7.479471489907192e+16,-2.2080067743506363e+24,2118.2626756306927,9.401398641883046e+22
0.0012311156213831585,7.332816053455784e+16,-2.1819402421953426e+24,2125.383772536246,9.48745606553007e+22
0.0012411156213831586,7.1899616918453816e+16,-2.156136958680371e+24,2132.463163050298,9.572788928592628e+22
0.0012511156213831586,7.050780840516052e+16,-2.1306009553641117e+24,2139.5013060792303,9.657371850976546e+22
0.0012611156213831586,6.915151015018453e+16,-2.1053357608415979e+24,2146.49865155376,9.741179997916016e+22
0.0012711156213831586,6.782954573366224e+16,-2.0803444273083602e+24,2153.455640684856,9.824189065425311e+22
0.0012811156213831587,6.65407849177927e+16,-2.0556295563270637e+24,2160.372706209808,9.906375266291074e+22
0.0012911156213831587,6.528414152898613e+16,-2.0311933237698138e+24,2167.2502726291405,9.987715316622089e+22
0.0013011156213831587,6.405857145630569e+16,-2.0070375039156195e+24,2174.0887564347686,1.006818642296423e+23
0.0013111156213831588,6.286307075841025e+16,-1.983163492691013e+24,2180.8885663304027,1.0147766270004771e+23
0.0013211156213831588,6.169667387202156e+16,-1.9595723300446598e+24,2187.650103443154,1.0226433008835918e+23
0.0013311156213831588,6.055845191511022e+16,-1.9362647214583252e+24,2194.3737615293217,1.0304165245850647e+23
0.0013411156213831588,5.944751107914725e+16,-1.9132410585909405e+24,2201.0599271704973,1.0380942032166627e+23
0.0013511156213831589,5.8362991104394296e+16,-1.8905014390701322e+24,2207.708979965104,1.045674285370522e+23
0.0013611156213831589,5.730406383339448e+16,-1.8680456854364622e+24,2214.3212927121817,1.0531547621836852e+23
0.001371115621383159,5.6269931837806216e+16,-1.8458733632554859e+24,2220.8972315885467,1.0605336664615609e+23
0.001381115621383159,5.5259827114056584e+16,-1.8239837984148862e+24,2227.4371563207183,1.0678090718630715e+23
0.001391115621383159,5.427300984379984e+16,-1.8023760936233475e+24,2233.9414203508563,1.0749790921447443e+23
0.001401115621383159,5.330876721539904e+16,-1.7810491441307338e+24,2240.4103709965734,1.08204188046249e+23
0.001411115621383159,5.23664123028081e+16,-1.7600016526914482e+24,2246.844349605725,1.0889956287328543e+23
0.001421115621383159,5.144528299851801e+16,-1.7392321437939928e+24,2253.2436917069926,1.0958385670549167e+23
0.001431115621383159,5.054474099773606e+16,-1.7187389771759455e+24,2259.60872715333,1.1025689631839895e+23
0.001441115621383159,4.966417083055459e+16,-1.6985203606534973e+24,2265.939780263309,1.1091851220690808e+23
0.0014511156213831591,4.880297893979391e+16,-1.6785743622839894e+24,2272.2371699559185,1.1156853854412529e+23
0.0014611156213831591,4.796059280177444e+16,-1.6588989218894592e+24,2278.5012098822303,1.1220681314604968e+23
0.0014711156213831592,4.7136460087818296e+16,-1.639491861962862e+24,2284.732208552211,1.128331774415185e+23
0.0014811156213831592,4.633004786423355e+16,-1.6203508979821178e+24,2290.93046945767,1.1344747644753433e+23
0.0014911156213831592,4.554084182869332e+16,-1.6014736481563053e+24,2297.096291192069,1.1404955875000645e+23
0.0015011156213831593,4.476834558125329e+16,-1.58285764262495e+24,2303.229967564896,1.1463927648916467e+23
0.0015111156213831593,4.401207992793472e+16,-1.5645003321375872e+24,2309.331787714698,1.1521648535054284e+23
0.0015211156213831593,4.327158221546221e+16,-1.5463990962321317e+24,2315.4020362167385,1.1578104456033516e+23
0.0015311156213831593,4.254640569536211e+16,-1.5285512509370395e+24,2321.440993188372,1.163328168857509e+23
0.0015411156213831594,4.183611891599264e+16,-1.5109540560179525e+24,2327.4489343912655,1.1687166863997879e+23
