t(s),Adsorbed H on surface 1 (H m-2),solute flux surface 1 (H m-2 s-1),Total T surface 1 (K),0 value at [0] (H m-3)
1e-06,353093946.24446964,-67095759894127.1,300.308953254029,1348405562367467.0
2.05e-06,1374241125.93465,-556178872093727.9,300.79481285609967,3667818851575469.5
3.1525e-06,3007386240.6236086,-991892147043797.6,301.43125936110624,5496417497233997.0
4.310125e-06,5317486218.848619,-1435047023989181.2,302.20893426342604,7259246591320911.0
5.52563125e-06,8437523241.19285,-1924898468716910.2,303.1246914788796,9123366097070770.0
6.8019128125e-06,12571325397.471981,-2497298834890096.0,304.1784242150297,1.1210798413257496e+16
8.142008453125e-06,18013101873.03356,-3193397541363220.0,305.37176500996407,1.3642340408064336e+16
9.54910887578125e-06,25182215531.728508,-4066308390929273.5,306.70743896519076,1.6559605232684926e+16
1.1026564319570314e-05,34678007678.39263,-5188731808908642.0,308.188895664811,2.014321939169831e+16
1.2577892535548829e-05,47364496385.682495,-6663478643169472.0,309.82007627094913,2.4633745988101564e+16
1.4206787162326272e-05,64501516289.43889,-8639091138633219.0,311.6052521303639,3.0359641605175616e+16
1.5917126520442588e-05,87949515389.99622,-1.1333752086361196e+16,313.5489035211668,3.777688900176726e+16
1.771298284646472e-05,120492770511.30856,-1.5072505222679184e+16,315.6556218294119,4.752663420445531e+16
1.9598631988787957e-05,166355179081.0337,-2.0345908126239016e+16,317.93002573578207,6.052015800977248e+16
2.1578563588227356e-05,232032538245.11908,-2.790341268214165e+16,320.37668590514903,7.806529739579462e+16
2.3657491767638723e-05,327650128926.5237,-3.890341791814555e+16,323.00005491737954,1.0205589540569086e+17
2.584036635602066e-05,469200380147.1168,-5.51564553998925e+16,325.8044005509863,1.3525744579330274e+17
2.8132384673821694e-05,682267936670.9141,-7.952242011957262e+16,328.79374141802157,1.817400817986679e+17
3.053900390751278e-05,1008288948699.1187,-1.1656408716678205e+17,331.9717845525922,2.4753796640439792e+17
3.306595410288842e-05,1515160005181.5073,-1.7362916925648403e+17,335.34186498562775,3.416574307294486e+17
3.571925180803284e-05,2315361714883.3047,-2.6265195527922198e+17,338.90688765561305,4.7762326693445997e+17
3.850521439843448e-05,3597138955646.3237,-4.031671708245794e+17,342.6692722469868,6.758562252428616e+17
4.143047511835621e-05,5678475047635.234,-6.273705871569549e+17,346.63090173761964,9.673344003167868e+17
4.4501998874274025e-05,9101008471673.43,-9.886395121219863e+17,350.7930755859587,1.3992359118313764e+18
4.772709881798773e-05,14794131059231.074,-1.5759021792750484e+18,355.1564686058578,2.0436330915077883e+18
5.111345375888712e-05,24362593039981.41,-2.5378827122523684e+18,359.7210966655078,3.01087163269509e+18
5.4669126446831475e-05,40591537509150.1,-4.1239772766968054e+18,364.48629040473315,4.4701095851196723e+18
5.8402582769173055e-05,68333283434585.266,-6.752844337500304e+18,369.45067818883285,6.680571670395906e+18
6.232271190763171e-05,116065588146861.14,-1.1127831715077263e+19,374.6121795034683,1.0039530000112808e+19
6.64388475030133e-05,198619440346014.53,-1.8428376176737653e+19,379.96800993501466,1.5153906593877887e+19
7.076078987816397e-05,341934816426473.44,-3.0625914064524108e+19,385.5146987716019,2.294705323491103e+19
7.529882937207217e-05,591287478415927.1,-5.099637872508519e+19,391.24812009188184,3.48136734467879e+19
8.006377084067578e-05,1025341295416391.2,-8.493067856782405e+19,397.1635379808139,5.283580932789971e+19
8.506695938270958e-05,1779653090332818.2,-1.4115983714586087e+20,403.255666219763,8.00611872013146e+19
9.032030735184505e-05,3084612940515154.5,-2.3345559001901105e+20,409.5187424461622,1.2080361724553201e+20
9.583632271943731e-05,5323015061524595.0,-3.8259871672232044e+20,415.94661636304255,1.8081899463578128e+20
0.00010162813885540918,9108397370602368.0,-6.177042263843214e+20,422.53285112336687,2.6701509144486704e+20
0.00010770954579817965,1.5372594360414828e+16,-9.748859439863828e+20,429.27083650946344,3.861843673018528e+20
0.00011409502308808864,2.543191336959548e+16,-1.491045764659678e+21,436.1539120199261,5.4259029744845934e+20
0.00012079977424249307,4.099904300434303e+16,-2.1940730450029626e+21,443.17549746247295,7.356082616511263e+20
0.00012783976295461773,6.415150114941067e+16,-3.0970902038330747e+21,450.32922816741416,9.598882115357255e+20
0.00013523175110234862,9.732717397466266e+16,-4.203892108273382e+21,457.6090915226669,1.2088460694177631e+21
0.00014299333865746606,1.434087746213078e+17,-5.521018690197118e+21,465.0095611969347,1.4785743847921033e+21
0.00015114300559033938,2.0588233512288026e+17,-7.064718945604669e+21,472.5257252159171,1.7689456825441428e+21
0.00015970015586985636,2.890120722444876e+17,-8.859152735289987e+21,480.1534039976265,2.082232377707427e+21
0.0001686851636633492,3.980010726799187e+17,-1.0931690858113246e+22,487.889254576135,2.4215465480273244e+21
0.00017811942184651667,5.391420590177713e+17,-1.331042178278073e+22,495.73085754683285,2.7902129165988434e+21
0.00018802539293884252,7.199640822983023e+17,-1.602408068868278e+22,503.67678377080995,3.1917581688767596e+21
0.00019802539293884252,9.390903849292198e+17,-1.8988642913848387e+22,511.4251475099255,3.6142896862909395e+21
0.00020802539293884252,1.198003004999912e+18,-2.2173502373842383e+22,518.920181456816,4.054752156751583e+21
0.00021802539293884252,1.499609527430053e+18,-2.5569978679705205e+22,526.1804327881628,4.51320313960307e+21
0.00022802539293884251,1.846423120516327e+18,-2.9169057834234993e+22,533.2230481010748,4.989673000747979e+21
0.00023802539293884251,2.2404711522816105e+18,-3.2961115796198943e+22,540.0637742349937,5.484398458429284e+21
0.0002480253929388425,2.6832316935242317e+18,-3.6935662211688888e+22,546.7170169098126,5.998201495063897e+21
0.00025802539293884254,3.1744078400209966e+18,-4.098184269288228e+22,553.1207474119487,6.520275559783254e+21
0.00026802539293884257,3.7135260180053873e+18,-4.511546428109159e+22,559.3159958172032,7.058328353311013e+21
0.0002780253929388426,4.3000309851136845e+18,-4.935203711690912e+22,565.3365860418965,7.621918063647902e+21
0.0002880253929388426,4.933203624158111e+18,-5.36902227265861e+22,571.2012085667753,8.221201861231573e+21
0.00029802539293884264,5.612241775126857e+18,-5.812481191791368e+22,576.9236666962428,8.869394423175024e+21
0.00030802539293884267,6.336360466379027e+18,-6.264940268575955e+22,582.5150625434828,9.58399581272091e+21
0.0003180253929388427,7.104872301744164e+18,-6.725715922575147e+22,587.984706249085,1.0388128386071573e+22
0.0003280253929388427,7.917227280127311e+18,-7.1940743855808704e+22,593.3406029016232,1.131246028122507e+22
0.00033802539293884275,8.773001351097763e+18,-7.669169536028096e+22,598.5897525236296,1.2398292485435583e+22
0.0003480253929388428,9.671829036897782e+18,-8.149929206723419e+22,603.7383520368783,1.3702743369922975e+22
0.0003580253929388428,1.0613275438618771e+19,-8.634873125238188e+22,608.7919396910097,1.5307715599929251e+22
0.00036802539293884283,1.1596632162180592e+19,-9.121810242922712e+22,613.7555029055799,1.733594492601509e+22
0.00037802539293884285,1.2620588370823684e+19,-9.607288434561663e+22,618.6335614343058,1.9981101289814635e+22
0.0003880253929388429,1.3682633546453015e+19,-1.0085493216333348e+23,623.4302331229211,2.3567815001224216e+22
0.0003980253929388429,1.4777736643072762e+19,-1.0545841546430665e+23,628.1492869488569,2.868048777014336e+22
0.00040802539293884293,1.5894483086355286e+19,-1.0967385347864955e+23,632.7941865051421,3.645904117571356e+22
0.00041802539293884296,1.6997188648059326e+19,-1.1307836041994935e+23,637.3681261360578,4.921011889878747e+22
0.000428025392938843,1.7903300131846312e+19,-1.1549490091334158e+23,641.8740613120409,6.884824854602528e+22
0.000438025392938843,1.828679438010359e+19,-1.195736312567823e+23,646.314734416192,8.572413179005e+22
0.00044802539293884304,1.8364853742251459e+19,-1.2601011796690627e+23,650.6926968207537,9.450209565174205e+22
0.00045802539293884306,1.8362182941970006e+19,-1.3314280025569013e+23,655.0103279304616,9.879414329267979e+22
0.0004680253929388431,1.8340943318456269e+19,-1.402158105333382e+23,659.269851718991,1.0099631924489303e+23
0.0004780253929388431,1.8314445386391951e+19,-1.4707068937645644e+23,663.473351172466,1.0212192450221171e+23
0.00048802539293884314,1.828576029285138e+19,-1.5371974489819063e+23,667.6227809727152,1.02630056508548e+23
0.0004980253929388432,1.8255802874849012e+19,-1.6020713820004644e+23,671.7199786889649,1.0275349576177878e+23
0.0005080253929388432,1.8224938641724105e+19,-1.6657351526830715e+23,675.7666746952573,1.0262114885187064e+23
0.0005180253929388432,1.8193344536319685e+19,-1.7284972599170684e+23,679.7645009958115,1.023094813728618e+23
0.0005280253929388432,1.8161112984011713e+19,-1.7905779124762378e+23,683.7149991055549,1.0186645846891848e+23
0.0005380253929388433,1.8128291485954759e+19,-1.852130949056001e+23,687.6196271131686,1.0132358054547066e+23
0.0005480253929388433,1.8094901021564502e+19,-1.9132630913360455e+23,691.479766029436,1.0070233118977002e+23
0.0005580253929388433,1.8060945669124479e+19,-1.9740481925445745e+23,695.2967255124242,1.0001782779693326e+23
0.0005680253929388434,1.802641799825889e+19,-2.0345372169586567e+23,699.0717490419695,9.92809895926565e+22
0.0005780253929388434,1.7991302226658333e+19,-2.094765113604367e+23,702.8060186114491,9.849987865493517e+22
0.0005880253929388434,1.7955576113471502e+19,-2.1547555452959228e+23,706.5006589902368,9.768055852281994e+22
0.0005980253929388434,1.791921209925802e+19,-2.2145241601498616e+23,710.1567416066396,9.682766035849663e+22
0.0006080253929388435,1.7882177974147617e+19,-2.2740808732336167e+23,713.775288090328,9.59447658526237e+22
0.0006180253929388435,1.7844437235959654e+19,-2.333431472373425e+23,717.35727351387,9.503467195611891e+22
0.0006280253929388435,1.7805949233820187e+19,-2.392578758520406e+23,720.9036293625894,9.409957745077816e+22
0.0006380253929388435,1.7766669154557372e+19,-2.451523362754719e+23,724.4152462611765,9.314121664693617e+22
0.0006480253929388436,1.7726547886126889e+19,-2.5102643365739053e+23,727.8929764808519,9.216095657588292e+22
0.0006580253929388436,1.7685531777838967e+19,-2.5687995820013103e+23,731.3376362507238,9.11598685054748e+22
0.0006680253929388436,1.7643562307638354e+19,-2.6271261673888796e+23,734.7500078886145,9.013878107213836e+22
0.0006780253929388436,1.7600575660010303e+19,-2.6852405613309232e+23,738.130841771581,8.90983200415772e+22
0.0006880253929388437,1.7556502213110104e+19,-2.7431388073507958e+23,741.4808581595606,8.803893818548366e+22
0.0006980253929388437,1.751126592965728e+19,-2.8008166555063676e+23,744.8007488852006,8.696093774153853e+22
0.0007080253929388437,1.7464783642533136e+19,-2.858269662519696e+23,748.0911789226346,8.58644872262947e+22
0.0007180253929388437,1.7416964222563744e+19,-2.9154932686994284e+23,751.35278784513,8.474963388410934e+22
0.0007280253929388438,1.7367707612408334e+19,-2.9724828576927536e+23,754.5861911818271,8.361631271864798e+22
0.0007380253929388438,1.7316903706647734e+19,-3.029233803336593e+23,757.7919816809065,8.246435281367992e+22
0.0007480253929388438,1.726443105390216e+19,-3.085741506861607e+23,760.9707304888157,8.12934814884629e+22
0.0007580253929388439,1.7210155352030681e+19,-3.1420014266162286e+23,764.1229882508599,8.010332671697659e+22
0.0007680253929388439,1.715392770204712e+19,-3.1980091019412535e+23,767.2492861397858,7.889341817377274e+22
0.0007780253929388439,1.7095582580314296e+19,-3.253760172339556e+23,770.3501368186146,7.766318723662376e+22
0.0007880253929388439,1.7034935481899991e+19,-3.309250392665052e+23,773.4260353430941,7.641196627800822e+22
0.000798025392938844,1.6971780180901394e+19,-3.364475644585737e+23,776.4774600065863,7.513898761552316e+22
0.000808025392938844,1.6905885546471928e+19,-3.419431944540777e+23,779.504873134391,7.3843382580652875e+22
0.000818025392938844,1.6836991847174842e+19,-3.474115447761762e+23,782.5087218289714,7.252418130061916e+22
0.000828025392938844,1.6764806472632263e+19,-3.528522447808664e+23,785.489438671291,7.11803140072335e+22
0.0008380253929388441,1.6688999003021462e+19,-3.5826493704451845e+23,788.4474423804833,6.981061499775976e+22
0.0008480253929388441,1.6609195568263006e+19,-3.6364927601907255e+23,791.3831384352553,6.8413830820990735e+22
0.0008580253929388441,1.6524972467093058e+19,-3.690049257117346e+23,794.2969196598301,6.698863488368955e+22
0.0008680253929388441,1.6435857031003515e+19,-3.7433153202911745e+23,797.1891667764535,6.553374475408713e+22
0.0008780253929388442,1.6341291061337477e+19,-3.796288136341216e+23,800.060248927327,6.4047632292559316e+22
0.0008880253929388442,1.6240660462298073e+19,-3.8489641449002257e+23,802.9105241674553,6.2528977311233705e+22
0.0008980253929388442,1.6133268254342896e+19,-3.90133973379011e+23,805.7403399306827,6.097658589346611e+22
0.0009080253929388442,1.6018330262543245e+19,-3.953411021825146e+23,808.5500334710977,5.938949959926672e+22
0.0009180253929388443,1.5894972381401176e+19,-4.0051736071243216e+23,811.3399322804438,5.776717058723233e+22
0.0009280253929388443,1.5762233112072385e+19,-4.056622309638238e+23,814.110354484031,5.6109688432063945e+22
0.0009380253929388443,1.5619075391813222e+19,-4.107750869117472e+23,816.8616092156212,5.441807229645702e+22
0.0009480253929388443,1.546441277492246e+19,-4.158551610585248e+23,819.5939969737558,5.269463167452747e+22
0.0009580253929388444,1.5297155881038875e+19,-4.2090151229579764e+23,822.307809959458,5.0943382245250706e+22
0.0009680253929388444,1.5116284770671886e+19,-4.2591300379370805e+23,825.0033323973865,4.917047625815567e+22
0.0009780253929388444,1.4920950276972298e+19,-4.3088830417266716e+23,827.6808408408455,4.738456934699101e+22
0.0009880253929388445,1.471060103162326e+19,-4.3582592808154615e+23,830.3406044621145,4.559700597155137e+22
0.0009980253929388445,1.4485122667030432e+19,-4.4072432975195346e+23,832.98288532857,4.3821683749639806e+22
0.0010080253929388445,1.4244963625974155e+19,-4.455820514259002e+23,835.6079386655991,4.207448113252435e+22
0.0010180253929388445,1.3991213616957276e+19,-4.503979077361887e+23,838.2160131068139,4.037222364606979e+22
0.0010280253929388446,1.372560300293837e+19,-4.551711646034525e+23,840.8073509333773,3.873130846289391e+22
0.0010380253929388446,1.3450407983656753e+19,-4.599016605473132e+23,843.382188301077,3.7166247273430105e+22
0.0010480253929388446,1.3168272978828462e+19,-4.645898303367519e+23,845.9407554579501,3.568844579779287e+22
0.0010580253929388446,1.288198642410728e+19,-4.692366229103629e+23,848.48327695132,3.4305473360295677e+22
0.0010680253929388447,1.2594257427594283e+19,-4.738433410462354e+23,851.0099718262768,3.3020918395248153e+22
0.0010780253929388447,1.2307534449043048e+19,-4.784114508258202e+23,853.5210538144908,3.1834756703910535e+22
0.0010880253929388447,1.2023888914025697e+19,-4.829424074895959e+23,856.0167315154401,3.074405168917725e+22
0.0010980253929388447,1.1744966334982566e+19,-4.8743752716955986e+23,858.497208569228,2.9743783475546497e+22
0.0011080253929388448,1.147199279484071e+19,-4.918979133079406e+23,860.962683822261,2.8827644849922645e+22
0.0011180253929388448,1.1205818195796101e+19,-4.963244312101549e+23,863.4133514855985,2.7988707775203055e+22
0.0011280253929388448,1.09469780322061e+19,-5.007177169714236e+23,865.8494012868686,2.7219924570916012e+22
0.0011380253929388448,1.0695759553276516e+19,-5.050782063270727e+23,868.27101861567,2.6514469026561903e+22
0.0011480253929388449,1.0452263299416912e+19,-5.0940617181475084e+23,870.6783846626357,2.5865943924780795e+22
0.001158025392938845,1.021645546824181e+19,-5.1370176049086126e+23,873.0716765536275,2.5268487942771994e+22
0.001168025392938845,9.988209752756644e+18,-5.179650278481641e+23,875.4510674774099,2.4716812862741593e+22
0.001178025392938845,9.767339199905298e+18,-5.221959661000335e+23,877.816726808909,2.420619626851849e+22
0.001188025392938845,9.553619552612311e+18,-5.2639452652646554e+23,880.1688202271578,2.373244839329004e+22
0.001198025392938845,9.346805806068806e+18,-5.3056063641601934e+23,882.5075098288198,2.3291865988306024e+22
0.001208025392938845,9.14664361633914e+18,-5.346942114721893e+23,884.8329542371503,2.288118152441192e+22
0.001218025392938845,8.952876945924427e+18,-5.387951646142246e+23,887.1453087064632,2.249751273469876e+22
0.001228025392938845,8.765253036919761e+18,-5.428634120270452e+23,889.4447252231696,2.2138315257390664e+22
0.0012380253929388451,8.583525529982023e+18,-5.468988771581069e+23,891.7313526021129,2.180133968786989e+22
0.0012480253929388451,8.407456321432584e+18,-5.509014932360146e+23,894.0053365801067,2.148459346554021e+22
0.0012580253929388452,8.236816576058856e+18,-5.548712047279607e+23,896.2668199053462,2.1186307515814443e+22
0.0012680253929388452,8.071387184033327e+18,-5.588079680611098e+23,898.5159424237077,2.0904907305937107e+22
0.0012780253929388452,7.910958858134297e+18,-5.627117518380838e+23,900.7528411618451,2.063898785905853e+22
0.0012880253929388452,7.755332003143327e+18,-5.665825367126963e+23,902.9776504071968,2.038729224282623e+22
0.0012980253929388453,7.604316445246334e+18,-5.704203150447995e+23,905.1905017851593,2.014869306698736e+22
0.0013080253929388453,7.457731079482033e+18,-5.7422509041584915e+23,907.3915243334349,1.9922176565062364e+22
0.0013180253929388453,7.315403473310616e+18,-5.779968770625982e+23,909.5808445736864,1.9706828884256655e+22
0.0013280253929388453,7.177169451058894e+18,-5.8173569926913904e+23,911.7585865807383,1.950182425761602e+22
0.0013380253929388454,7.042872675160162e+18,-5.854415907401445e+23,913.9248720489431,1.930641477897409e+22
0.0013480253929388454,6.912364234215402e+18,-5.891145939822834e+23,916.0798203570166,1.9119921543326714e+22
0.0013580253929388454,6.785502244051565e+18,-5.927547596929691e+23,918.2235486298549,1.8941726951157543e+22
0.0013680253929388455,6.662151465351867e+18,-5.963621461734609e+23,920.3561717986809,1.8771268007000829e+22
0.0013780253929388455,6.542182939757887e+18,-5.99936818765602e+23,922.4778026589759,1.860803046863713e+22
0.0013880253929388455,6.425473645231084e+18,-6.0347884931459485e+23,924.5885519263023,1.8451543725771462e+22
0.0013980253929388455,6.311906170736198e+18,-6.069883156622879e+23,926.6885282905565,1.8301376305854616e+22
0.0014080253929388456,6.20136840986198e+18,-6.104653011679157e+23,928.77783846835,1.8157131920265827e+22
0.0014180253929388456,6.093753272717331e+18,-6.139098942531201e+23,930.8565872532542,1.8018445977259189e+22
0.0014280253929388456,5.988958415258053e+18,-6.173221879785614e+23,932.9248775650403,1.7884982499336274e+22
0.0014380253929388456,5.886885985140188e+18,-6.207022796416952e+23,934.9828104968016,1.7756431391577912e+22
0.0014480253929388457,5.787442383143833e+18,-6.240502704005469e+23,937.0304853607961,1.763250601558712e+22
0.0014580253929388457,5.690538039222417e+18,-6.273662649191152e+23,939.0679997326816,1.7512941030035996e+22
0.0014680253929388457,5.596087202250117e+18,-6.306503710346274e+23,941.0954494943915,1.7397490464433642e+22
0.0014780253929388457,5.504007742575264e+18,-6.339026994467357e+23,943.1129288758807,1.7285925997391133e+22
0.0014880253929388458,5.414220966542897e+18,-6.371233634217057e+23,945.1205304950585,1.7178035414476171e+22
0.0014980253929388458,5.326651442180313e+18,-6.403124785170002e+23,947.1183453967825,1.7073621224359513e+22
0.0015080253929388458,5.241226835296708e+18,-6.434701623240303e+23,949.1064630908194,1.6972499414651385e+22
0.0015180253929388458,5.157877755303212e+18,-6.465965342239264e+23,951.0849715882855,1.687449833121578e+22
0.0015280253929388459,5.076537610096413e+18,-6.4969171515963e+23,953.053957437141,1.6779457667004946e+22
0.001538025392938846,4.99714246939958e+18,-6.527558274218236e+23,955.0135057565698,1.6687227548127426e+22
0.001548025392938846,4.919630935996828e+18,-6.557889944487895e+23,956.9637002703976,1.6597667706452637e+22
0.001558025392938846,4.843944024338006e+18,-6.587913406383707e+23,958.9046233394427,1.6510646729342567e+22
0.001568025392938846,4.770025046031562e+18,-6.617629911698591e+23,960.8363559926378,1.6426041378241493e+22
