t(s),Adsorbed H on surface 1 (H m-2),solute flux surface 1 (H m-2 s-1),Total T surface 1 (K),0 value at [0] (H m-3)
1e-08,103.52425001325392,-255552510.89007503,301.30135893551153,38540494983.02236
2.05e-08,103.52425001325392,-269206860.3707863,303.3482409359862,38540494983.02236
3.1525e-08,103.52425001325392,-287897620.8395308,306.03004580592534,38540494983.02236
4.3101250000000004e-08,103.52425001325392,-312013370.35011536,309.3075421677014,38540494983.02236
5.5256312500000004e-08,103.52425001325392,-342268803.9673842,313.16676275546854,38540494983.02236
6.801912812500001e-08,103.52425001325392,-379673421.1056027,317.60792582602926,38540494983.02236
8.142008453125001e-08,103.52425001325392,-425530817.13912964,322.6385586566559,38540494983.02236
9.549108875781251e-08,103.52425001325392,-481469423.450627,328.2705651056906,38540494983.02236
1.1026564319570314e-07,103.52425001325392,-549492220.047343,334.51896123984363,38540494983.02236
1.2577892535548832e-07,103.52425001325392,-632035076.7812248,341.4009153943976,38540494983.02236
1.4206787162326273e-07,103.52425001325392,-732033210.3006456,348.9350781768473,38540494983.02236
1.5917126520442587e-07,103.52425001325392,-852993580.8286097,357.14108134332935,38540494983.02236
1.7712982846464716e-07,2070877.6372215147,-16051475209189.807,366.0391361819991,109920409175078.86
1.9598631988787953e-07,9180938.793612884,-74889095339044.61,375.64969168892117,305618675541676.7
2.157856358822735e-07,32182648.982956633,-279803988204062.44,385.99312907481016,797948577949045.8
2.357856358822735e-07,100781335.09245518,-940814960671379.5,396.6593247758641,2004157696604402.5
2.557856358822735e-07,294817147.08063805,-2953026726851469.0,407.50928519281223,4851105326431514.0
2.7578563588227355e-07,822532095.325645,-8792979990153816.0,418.5134276374356,1.1358543636291772e+16
2.9578563588227357e-07,2203991596.696497,-2.496455676101001e+16,429.64580297408156,2.5754779852056116e+16
3.157856358822736e-07,5687030421.568655,-6.773254976409703e+16,440.8835039609508,5.65822588306849e+16
3.357856358822736e-07,14150364058.636517,-1.7588967653825418e+17,452.2062153379658,1.2050892415977374e+17
3.5578563588227363e-07,33985884387.3435,-4.378380449859191e+17,463.5958558164403,2.4897734029412832e+17
3.7578563588227365e-07,78870202809.87128,-1.0464358231127437e+18,475.03628641332455,4.994001801531755e+17
3.9578563588227367e-07,177041260432.16397,-2.40529561954462e+18,486.51306897379715,9.733820715828017e+17
4.157856358822737e-07,384839088801.50275,-5.326394055341314e+18,498.01326372686344,1.845434600619829e+18
4.357856358822737e-07,811050279667.9436,-1.138324485161006e+19,509.5252577987511,3.4068590319764316e+18
4.5578563588227373e-07,1659266545190.081,-2.351908031532808e+19,521.0386186589825,6.130885193779112e+18
4.7578563588227375e-07,3299333777950.045,-4.705814610788804e+19,532.5439679039155,1.076673614816743e+19
4.957856358822737e-07,6384375337630.876,-9.133271015248793e+19,544.0328718120119,1.84719618262765e+19
5.157856358822737e-07,12037206049012.352,-1.722210715314502e+20,555.4977458639088,3.0994124992785502e+19
5.357856358822738e-07,22139564054553.023,-3.159921337331222e+20,566.9317709902381,5.091442942921409e+19
5.557856358822738e-07,39769852679154.555,-5.6497169261432485e+20,578.3288197448086,8.196733527181921e+19
5.757856358822738e-07,69850237323962.72,-9.856789499381337e+20,589.6833909367803,1.2945108502746335e+20
5.957856358822738e-07,120082120248915.02,-1.6802248861387797e+21,600.9905515182858,2.007443873818724e+20
6.157856358822738e-07,202270097152609.75,-2.8019055896507717e+21,612.245884731711,3.059438285890872e+20
6.357856358822739e-07,334157978356276.0,-4.5760456644571095e+21,623.4454436866517,4.586343890427659e+20
6.557856358822739e-07,541925179081915.25,-7.327218721597451e+21,634.5857096700374,6.768008244808872e+20
6.757856358822739e-07,863515497947050.4,-1.1513941346108588e+22,645.6635546012441,9.838790906731309e+20
6.957856358822739e-07,1352988918282545.5,-1.7771715200591696e+22,656.6762071325761,1.4099319216672153e+21
7.157856358822739e-07,2086093462422535.8,-2.696473301877688e+22,667.6212219684127,1.9929071696891824e+21
7.35785635882274e-07,3167236433351316.5,-4.024543895189724e+22,678.4964520367228,2.779895884840078e+21
7.55785635882274e-07,4737973833697747.0,-5.911911042108614e+22,689.3000231970095,3.8282421326574057e+21
7.75785635882274e-07,6987005903256253.0,-8.550729092038327e+22,700.0303112109596,5.206261231476051e+21
7.95785635882274e-07,1.0161429988176864e+16,-1.2179887056504565e+23,710.6859207376432,6.993195770226551e+21
8.15785635882274e-07,1.4578622969941292e+16,-1.7087087385671986e+23,721.2656661452469,9.277893883321937e+21
8.357856358822741e-07,2.0637588057715904e+16,-2.360536066975073e+23,731.7685539569511,1.215558019451885e+22
8.557856358822741e-07,2.8827950349933244e+16,-3.210098072945878e+23,742.1937667704912,1.5722108950190032e+22
8.757856358822741e-07,3.973418770366632e+16,-4.2950072285346776e+23,752.5406485097408,2.006539974841783e+22
8.957856358822741e-07,5.40324660060864e+16,-5.650313917669437e+23,762.8086908828786,2.5254517714232296e+22
9.157856358822741e-07,7.24780462731117e+16,-7.304076200468628e+23,772.9975209357153,3.1328069113391155e+22
9.357856358822742e-07,9.58829966953304e+16,-9.272935083899141e+23,783.1068896009425,3.828493297362828e+22
9.55785635882274e-07,1.2508662237836474e+17,-1.1559000785912249e+24,793.1366611546691,4.608085675214568e+22
9.75785635882274e-07,1.6092378139834704e+17,-1.4149358784558752e+24,803.0868035008841,5.463354179503321e+22
9.957856358822741e-07,2.041975467917717e+17,-1.701875483062921e+24,812.9573792126176,6.38360173024897e+22
1.0157856358822741e-06,2.5566150040536784e+17,-2.0134822792020463e+24,822.7485372657211,7.357473460426974e+22
1.0357856358822742e-06,3.160135600561285e+17,-2.34641856960578e+24,832.4605054074924,8.374676273919573e+22
1.0557856358822742e-06,3.8589925433557325e+17,-2.697752266586803e+24,842.093583107954,9.427107617218083e+22
1.0757856358822742e-06,4.659196773692176e+17,-3.065235593226235e+24,851.648135046531,1.0509177318389663e+23
1.0957856358822742e-06,5.56638948938612e+17,-3.447339970608377e+24,861.1245850912786,1.161743539169881e+23
1.1157856358822742e-06,6.585874886553116e+17,-3.843118722463744e+24,870.523410731721,1.274981889377432e+23
1.1357856358822743e-06,7.722596077114843e+17,-4.2520000687338647e+24,879.8451379298665,1.3904845840329044e+23
1.1557856358822743e-06,8.981057370568431e+17,-4.6735930981003746e+24,889.0903363570925,1.5080972700590019e+23
1.1757856358822743e-06,1.0365205591828316e+18,-5.107547896942448e+24,898.2596149874054,1.627619268529213e+23
1.1957856358822743e-06,1.187828483867945e+18,-5.553474603039965e+24,907.3536180201038,1.748785389194239e+23
1.2157856358822743e-06,1.3522676617829821e+18,-6.010906832805703e+24,916.3730211071519,1.8712637032763858e+23
1.2357856358822744e-06,1.5299733885832118e+18,-6.479291208375334e+24,925.3185278626175,1.9946634939077443e+23
1.2557856358822744e-06,1.7209614832060718e+18,-6.957989308081338e+24,934.1908666333896,2.1185494766423465e+23
1.2757856358822744e-06,1.925112054210438e+18,-7.446284693947355e+24,942.9907875120646,2.2424601029563062e+23
1.2957856358822744e-06,2.142153956274279e+18,-7.943392337561385e+24,951.7190595744223,2.3659286595231472e+23
1.3157856358822744e-06,2.371650139175166e+18,-8.448470099894102e+24,960.3764683252928,2.4885060216654783e+23
1.3357856358822745e-06,2.6129839818804106e+18,-8.960632554288823e+24,968.9638133378741,2.6097836404449477e+23
1.3557856358822745e-06,2.865346591922078e+18,-9.478967221320082e+24,977.4819060727166,2.7294149501915363e+23
1.3757856358822745e-06,3.1277249641645844e+18,-1.000255280703466e+25,985.931567863631,2.8471330804191727e+23
1.3957856358822745e-06,3.3988908747355387e+18,-1.0530478606144741e+25,994.3136280587398,2.962762650676456e+23
1.4157856358822745e-06,3.6773904792352466e+18,-1.1061863961345795e+25,1002.6289223057664,3.076223565487962e+23
1.4357856358822746e-06,3.9615348264544645e+18,-1.1595876578180414e+25,1010.878290971464,3.1875251209214776e+23
1.4557856358822746e-06,4.249391910024422e+18,-1.2131748562493293e+25,1019.0625776858175,3.296749375874082e+23
1.4757856358822746e-06,4.5388081564092867e+18,-1.2669934199033676e+25,1027.1911090256165,3.40430099642121e+23
1.4957856358822746e-06,4.827350163698309e+18,-1.3208737166847735e+25,1035.2559762744734,3.510031846007426e+23
1.5157856358822746e-06,5.112340059374711e+18,-1.3747545847983428e+25,1043.2580163885111,3.6140235726831346e+23
1.5357856358822747e-06,5.390874118633653e+18,-1.4285929469693524e+25,1051.198091657991,3.716285003399876e+23
1.5557856358822747e-06,5.659854094390714e+18,-1.4823554865898619e+25,1059.0770607693703,3.8166883703905216e+23
1.5757856358822747e-06,5.91603585422024e+18,-1.5360169088174156e+25,1066.8957771326452,3.914923970457732e+23
1.5957856358822747e-06,6.156097995936164e+18,-1.58955866526436e+25,1074.655088414707,4.010468759927959e+23
1.6157856358822747e-06,6.376731378851796e+18,-1.642967449719848e+25,1082.3558361341204,4.1025745510276514e+23
1.6357856358822748e-06,6.57474809635381e+18,-1.6962334210858164e+25,1089.9988552410218,4.190281484147363e+23
1.6557856358822748e-06,6.74720544973912e+18,-1.7493482082059297e+25,1097.5849736956352,4.272460268691995e+23
1.6757856358822748e-06,6.891537365604387e+18,-1.8023027945045672e+25,1105.1150120605585,4.347883024100631e+23
1.6957856358822748e-06,7.005683005535275e+18,-1.8550854263530174e+25,1112.589783116234,4.415317833309934e+23
1.7157856358822748e-06,7.088200682167629e+18,-1.9076797341853422e+25,1120.010091504571,4.473637181416345e+23
1.7357856358822749e-06,7.138355151421979e+18,-1.960063282112832e+25,1127.3767334029728,4.521926518038789e+23
1.7557856358822749e-06,7.156168155289428e+18,-2.012206750682415e+25,1134.690496229356,4.5595775387048855e+23
1.775785635882275e-06,7.142425611644816e+18,-2.064073896887495e+25,1141.9521583777962,4.5863522794345857e+23
1.795785635882275e-06,7.098639556098615e+18,-2.11562232986176e+25,1149.1624889839225,4.602408735153736e+23
1.815785635882275e-06,7.026968018825562e+18,-2.1668050119877812e+25,1156.3222477187317,4.608285416614858e+23
1.835785635882275e-06,6.930100568456713e+18,-2.217572276887721e+25,1163.4321846094817,4.6048493221134905e+23
1.855785635882275e-06,6.811120521764071e+18,-2.2678740801206808e+25,1170.493039886126,4.593217416515202e+23
1.875785635882275e-06,6.673356363166333e+18,-2.3176621838999796e+25,1177.5055438517577,4.5746646503528416e+23
1.895785635882275e-06,6.520234684996042e+18,-2.3668920224412303e+25,1184.4704167755765,4.5505315153834074e+23
1.915785635882275e-06,6.355145230746202e+18,-2.4155240811097943e+25,1191.3883688068943,4.5221416939841776e+23
1.935785635882275e-06,6.181325902457081e+18,-2.4635247235048507e+25,1198.2600999087335,4.4907365987109116e+23
1.9557856358822747e-06,6.001772456341826e+18,-2.510866491032367e+25,1205.0862998096834,4.457429647485742e+23
1.9757856358822745e-06,5.819174576806707e+18,-2.557527963309757e+25,1211.8676479726869,4.4231798236080335e+23
1.9957856358822743e-06,5.635877465670567e+18,-2.6034932997796484e+25,1218.604813579519,4.3887818486391044e+23
2.015785635882274e-06,5.453866215557025e+18,-2.648751586904941e+25,1225.2984555297935,4.354869188647137e+23
2.035785635882274e-06,5.274769100285757e+18,-2.693296099830997e+25,1231.9492224533656,4.3219259125137733e+23
2.0557856358822737e-06,5.099875438954172e+18,-2.7371235619436782e+25,1238.557752735104,4.290303818574365e+23
2.0757856358822735e-06,4.930163734600514e+18,-2.7802334581846346e+25,1245.12467455103,4.260241947570168e+23
2.0957856358822733e-06,4.766336190136965e+18,-2.8226274334437703e+25,1251.65060591491,4.23188637972262e+23
2.115785635882273e-06,4.6088563105134715e+18,-2.864308788299461e+25,1258.1361547343965,4.20530892977834e+23
2.135785635882273e-06,4.457986986004982e+18,-2.905282071296366e+25,1264.5819188759378,4.180523937214784e+23
2.1557856358822728e-06,4.3138271273522734e+18,-2.9455527591167895e+25,1270.9884862376596,4.157502782083525e+23
2.1757856358822726e-06,4.1763455330221957e+18,-2.9851270121992306e+25,1277.3564348295115,4.13618605293445e+23
2.1957856358822724e-06,4.0454111834139766e+18,-3.0240114923119064e+25,1283.686332859989,4.116493478037427e+23
2.215785635882272e-06,3.920819567745634e+18,-3.0622132292229557e+25,1289.9787388288205,4.0983318334932996e+23
2.235785635882272e-06,3.8023149607866813e+18,-3.099739525112648e+25,1296.234201625018,4.0816010875094636e+23
2.255785635882272e-06,3.689608789827044e+18,-3.1365978872080622e+25,1302.4532606297228,4.0661990494986776e+23
2.2757856358822716e-06,3.5823943915248783e+18,-3.172795981704434e+25,1308.6364458233652,4.0520247776681403e+23
2.2957856358822714e-06,3.4803584847371085e+18,-3.208341600109515e+25,1314.7842778966265,4.0389809999357996e+23
2.3157856358822712e-06,3.383189897057943e+18,-3.243242636376621e+25,1320.897268364779,4.0269756887338195e+23
2.335785635882271e-06,3.2905858549204316e+18,-3.277507073197043e+25,1326.9759196849564,4.0159230659381343e+23
2.355785635882271e-06,3.202256322425323e+18,-3.3111429693879034e+25,1333.0207253759952,4.005744099813387e+23
2.3757856358822706e-06,3.117926761342571e+18,-3.3441584504557832e+25,1339.032170140475,3.996366654568573e+23
2.3957856358822705e-06,3.037339658310804e+18,-3.376561700345274e+25,1345.0107299886006,3.987725385350088e+23
2.4157856358822703e-06,2.9602551190910275e+18,-3.4083609536002874e+25,1350.95687236365,3.979761458109724e+23
2.43578563588227e-06,2.886450782398315e+18,-3.4395644874913877e+25,1356.8710562686558,3.972422156709641e+23
2.45578563588227e-06,2.8157212601220055e+18,-3.4701806138889922e+25,1362.753732394096,3.965660425129739e+23
2.4757856358822697e-06,2.7478772685705283e+18,-3.500217670814356e+25,1368.6053432462963,3.959434380555261e+23
2.4957856358822695e-06,2.6827445779280927e+18,-3.5296840137028562e+25,1374.4263232763503,3.9537068232274525e+23
2.5157856358822693e-06,2.6201908907130476e+18,-3.5581373475711127e+25,1380.1969135202582,3.948016201706186e+23
2.535785635882269e-06,2.56007997171121e+18,-3.5857298517467735e+25,1385.9230571317294,3.9424936747366894e+23
2.555785635882269e-06,2.5022756721257364e+18,-3.612616029854516e+25,1391.6108733096407,3.937260197395449e+23
2.5757856358822687e-06,2.4466489263559137e+18,-3.63886407160035e+25,1397.2630296124687,3.932349928499305e+23
2.5957856358822685e-06,2.393078991011243e+18,-3.6645173232888526e+25,1402.881298061437,3.9277740430631934e+23
2.6157856358822683e-06,2.3414535487899505e+18,-3.689607490757218e+25,1408.467031126743,3.9235340675814164e+23
2.635785635882268e-06,2.2916683628485476e+18,-3.7141595463713107e+25,1414.021337607784,3.9196268146735015e+23
2.655785635882268e-06,2.243626748552075e+18,-3.738194110841591e+25,1419.5451666760268,3.9160467034199345e+23
2.6757856358822678e-06,2.1972389851801884e+18,-3.7617287885936066e+25,1425.0393543627533,3.9127869832875025e+23
2.6957856358822676e-06,2.1524217277575409e+18,-3.784778988348969e+25,1430.5046519002565,3.9098404211995796e+23
2.7157856358822674e-06,2.1090974483527534e+18,-3.807358460692373e+25,1435.941744256665,3.90719969991164e+23
2.735785635882267e-06,2.0671939198910748e+18,-3.8294796672970767e+25,1441.3512629224504,3.904857651326162e+23
2.755785635882267e-06,2.0266437467149862e+18,-3.8511540439464724e+25,1446.733795111072,3.9028073914435824e+23
2.775785635882267e-06,1.9873839414358364e+18,-3.872392193422834e+25,1452.0898906095479,3.901042395035517e+23
2.7957856358822666e-06,1.9493555452642056e+18,-3.893204030364397e+25,1457.4200670256248,3.899556532717939e+23
2.8157856358822664e-06,1.9125032879804887e+18,-3.913598892234266e+25,1462.7248139037551,3.898344084359137e+23
2.8357856358822662e-06,1.876775283423816e+18,-3.933585625780476e+25,1468.0045960200734,3.897399737592148e+23
2.855785635882266e-06,1.84212275649036e+18,-3.953172655395367e+25,1473.2598560668243,3.8967185770527925e+23
2.875785635882266e-06,1.8084997979382968e+18,-3.972368037864626e+25,1478.491016873055,3.89629606799589e+23
2.8957856358822657e-06,1.7758631436792927e+18,-3.991179506721554e+25,1483.6984832665041,3.896128036685994e+23
2.9157856358822655e-06,1.7441719756308808e+18,-4.009614508552427e+25,1488.8826436532638,3.896210649142317e+23
2.9357856358822653e-06,1.713387741577398e+18,-4.027680232993651e+25,1494.0438713722062,3.896540389280581e+23
2.955785635882265e-06,1.6834739918241603e+18,-4.045383637730441e+25,1499.1825258672638,3.897114037135283e+23
2.975785635882265e-06,1.6543962307258278e+18,-4.06273146949658e+25,1504.2989537106862,3.897928647605071e+23
2.9957856358822647e-06,1.6261217814262026e+18,-4.079730281845476e+25,1509.3934895030175,3.8989815299991416e+23
3.0157856358822645e-06,1.5986196623663683e+18,-4.09638645029451e+25,1514.4664566701595,3.900270228551999e+23
3.0357856358822643e-06,1.571860474305739e+18,-4.112706185314981e+25,1519.518168173665,3.9017925039960127e+23
3.055785635882264e-06,1.5458162967604977e+18,-4.128695543544438e+25,1524.54892714736,3.9035463162306786e+23
3.075785635882264e-06,1.5204605929003986e+18,-4.144360437521905e+25,1529.559027470884,3.905529808091093e+23
3.0957856358822638e-06,1.4957681220617147e+18,-4.159706644188969e+25,1534.548754288862,3.907741290195063e+23
3.1157856358822636e-06,1.4717148591342474e+18,-4.1747398123542734e+25,1539.5183844829303,3.910179226833147e+23
3.1357856358822634e-06,1.44827792016654e+18,-4.189465469282121e+25,1544.4681871026014,3.912842222855543e+23
3.155785635882263e-06,1.4254354936079498e+18,-4.2038890265383395e+25,1549.3984237600255,3.91572901150515e+23
3.175785635882263e-06,1.4031667766707822e+18,-4.218015785202792e+25,1554.3093489929113,3.9188384431427144e+23
3.195785635882263e-06,1.3814519163519434e+18,-4.23185094053983e+25,1559.2012105992242,3.922169474809506e+23
3.2157856358822626e-06,1.3602719547025943e+18,-4.245399586202718e+25,1564.0742499467606,3.925721160573413e+23
3.2357856358822624e-06,1.339608777977253e+18,-4.258666718036154e+25,1568.9287022602748,3.929492642606089e+23
3.2557856358822622e-06,1.3194450693315922e+18,-4.2716572375305765e+25,1573.7647968884507,3.933483142940507e+23
3.275785635882262e-06,1.2997642647714025e+18,-4.284375954973843e+25,1578.5827575527182,3.937691955860885e+23
3.295785635882262e-06,1.2805505120845732e+18,-4.296827592339298e+25,1583.382802579677,3.9421184408798334e+23
3.3157856358822616e-06,1.2617886325139794e+18,-4.3090167859428e+25,1588.1651451186306,3.946762016259651e+23
3.3357856358822615e-06,1.2434640849522542e+18,-4.320948088897519e+25,1592.929993345608,3.951622153038217e+23
3.3557856358822613e-06,1.2255629324599826e+18,-4.332625973390168e+25,1597.6775506550234,3.956698369521708e+23
3.375785635882261e-06,1.2080718109271693e+18,-4.3440548328000876e+25,1602.4080158400636,3.9619902262097887e+23
3.395785635882261e-06,1.1909778997142044e+18,-4.355238983678996e+25,1607.1215832627195,3.9674973211208525e+23
3.4157856358822607e-06,1.1742688941232325e+18,-4.3661826676069875e+25,1611.818443014301,3.973219285487238e+23
3.4357856358822605e-06,1.1579329795639442e+18,-4.376890052938456e+25,1616.4987810671832,3.9791557797927597e+23
3.4557856358822603e-06,1.1419588072896471e+18,-4.387365236449735e+25,1621.1627794184615,3.985306490126881e+23
3.47578563588226e-06,1.126335471590095e+18,-4.397612244898797e+25,1625.8106162261138,3.991671124831627e+23
3.49578563588226e-06,1.1110524883371297e+18,-4.407635036506009e+25,1630.4424659382214,3.9982494114193144e+23
3.5157856358822597e-06,1.0960997747878721e+18,-4.417437502363715e+25,1635.058499415732,4.005041093740591e+23
3.5357856358822595e-06,1.0814676305580013e+18,-4.427023467781945e+25,1639.658884049231,4.012045929384245e+23
3.5557856358822593e-06,1.0671467196847459e+18,-4.436396693575975e+25,1644.2437838701117,4.0192636872911154e+23
3.575785635882259e-06,1.0531280537056845e+18,-4.44556087730145e+25,1648.8133596565292,4.026694145566221e+23
3.595785635882259e-06,1.0394029756852271e+18,-4.454519654441591e+25,1653.3677690344675,4.034337089474169e+23
3.6157856358822588e-06,1.0259631451260274e+18,-4.463276599550831e+25,1657.9071665742358,4.042192309604069e+23
