t(s),Adsorbed H on surface 1 (H m-2),solute flux surface 1 (H m-2 s-1),Total T surface 1 (K),0 value at [0] (H m-3)
1e-10,178.99837170612875,-233275189202.14243,300.00711213749173,6889001179071.8545
2.0500000000000002e-10,554.362947710211,-503320998021.5866,300.01106004510154,13757101850375.309
3.1525e-10,1144.4636026187613,-811216095606.9866,300.0143655825586,20595552551594.727
4.3101250000000007e-10,1968.87751612466,-1158282507101.665,300.01744563967424,27401155261137.668
5.525631250000001e-10,3048.495959773175,-1545757649394.2048,300.020464015214,34172028264508.902
6.801912812500001e-10,4405.64344831424,-1974786871867.7603,300.0235116127125,40907607786693.59
8.142008453125001e-10,6064.212142059279,-2446419594835.5024,300.02665121400304,47608669484068.07
9.549108875781252e-10,8049.8134535144245,-2961608196279.033,300.02993359093165,54277342860011.28
1.1026564319570316e-09,10389.948536507065,-3521209551684.098,300.03340481303394,60917109551768.05
1.2577892535548832e-09,13114.199213908043,-4125989268950.402,300.0371102349994,67532781905100.82
1.4206787162326274e-09,16254.440830535648,-4776628663013.731,300.0410970833606,74130460722441.6
1.591712652044259e-09,19845.07848190273,-5473734477710.183,300.04541643951825,80717472644980.88
1.7712982846464719e-09,23923.308072824548,-6217851313888.67,300.0501250027281,87302288896203.62
1.9598631988787956e-09,28529.403719240094,-7009476675826.344,300.0552868482421,93894428250850.97
2.1578563588227356e-09,33707.03314573756,-7849078511654.075,300.06097532447455,100504348144139.19
2.3578563588227357e-09,39270.88373138172,-8703250775651.662,300.06702473653854,106901011801780.64
2.557856358822736e-09,45155.730996196,-9561428262356.848,300.0734057189003,113049884312499.8
2.757856358822736e-09,51350.287048497295,-10421933924456.754,300.0801460040163,118978821918274.84
2.957856358822736e-09,57844.519485997276,-11283407876595.729,300.0872733782597,124711794183820.27
3.1578563588227363e-09,64629.4816885883,-12144755532356.836,300.09481602085395,130269488750862.77
3.3578563588227364e-09,71697.16953994788,-13005104338991.814,300.10280274794576,135669819726731.05
3.5578563588227366e-09,79040.40038964411,-13863767699767.096,300.1112632023389,140928355299359.22
3.757856358822737e-09,86652.71074514237,-14720214904760.102,300.1202280082034,146058677647073.66
3.957856358822737e-09,94528.2697508907,-15574046084885.55,300.1297289020629,151072686090977.34
4.157856358822737e-09,102661.80598733226,-16424971366134.682,300.13979884726956,155980852659582.8
4.357856358822737e-09,111048.54552119457,-17272793536569.156,300.1504721367875,160792437745674.22
4.557856358822737e-09,119684.15947227662,-18117393651884.836,300.16178448760417,165515672288032.34
4.757856358822737e-09,128564.7196417104,-18958719100011.5,300.1737731291085,170157911866518.3
4.9578563588227375e-09,137686.66098112985,-19796773724305.074,300.18647688710905,174725767225137.1
5.157856358822738e-09,147046.74987872315,-20631609670983.703,300.19993626470324,179225215006392.88
5.357856358822738e-09,156642.05740295767,-21463320681695.316,300.2141935208822,183661691868283.2
5.557856358822738e-09,166469.9367830314,-22292036598274.56,300.2292927475196,188040174643182.62
5.757856358822738e-09,176528.0045211504,-23117918885342.355,300.24527994521804,192365248769342.47
5.957856358822738e-09,186814.12462919267,-23941157008673.684,300.2622030983585,196641166867130.75
6.157856358822738e-09,197326.3955642261,-24761965534248.457,300.2801122495978,200871899032041.12
6.3578563588227385e-09,208063.13950624724,-25580581835482.645,300.2990595739841,205061176165354.62
6.557856358822739e-09,219022.8936795247,-26397264315036.613,300.31909945280046,209212527453162.9
6.757856358822739e-09,230204.40346785038,-27212291063426.875,300.34028854719816,213329312928567.9
6.957856358822739e-09,241606.6171153116,-28025958889933.348,300.3626858716434,217414751904680.62
7.157856358822739e-09,253228.6818391544,-28838582672424.04,300.38635286716874,221471947942878.6
7.357856358822739e-09,265069.9412109554,-29650494982066.05,300.41135347439285,225503910917743.72
7.557856358822738e-09,277129.93368754,-30462045946757.66,300.43775420625064,229513576653930.44
7.757856358822739e-09,289408.39219461737,-31273603323745.688,300.4656242203541,233503824538174.56
7.957856358822739e-09,301905.24468456337,-32085552757498.152,300.4950353908872,237477493449471.6
8.157856358822739e-09,314620.61560570274,-32898298203656.434,300.52606237992256,241437396300229.06
8.357856358822739e-09,327554.8282342537,-33712262503942.418,300.5587827080314,245386333439327.75
8.557856358822739e-09,340708.4078321781,-34527888100367.305,300.5932768240471,249327105133199.28
8.75785635882274e-09,354082.08560484694,-35345637880083.164,300.6296281738281,253262523312125.4
8.95785635882274e-09,367676.803441946,-36165996144825.51,300.6679232678557,257195422745063.84
9.15785635882274e-09,381493.71943364834,-36989469701186.16,300.70825174749007,261128671786638.2
9.35785635882274e-09,395534.2141619588,-37816589069999.37,300.75070644969793,265065182823860.44
9.55785635882274e-09,409799.89777446823,-38647909814966.89,300.7953834700548,269007922537138.66
9.75785635882274e-09,424292.61785468966,-39484013992344.555,300.84238222381555,272959922079738.06
9.95785635882274e-09,439014.46810981573,-40325511725098.26,300.8918055048379,276924287271726.1
1.015785635882274e-08,453967.79790326045,-41173042906447.93,300.9437595421335,280904208898261.34
1.035785635882274e-08,469155.2226658316,-42027279039190.94,300.99835405381447,284902973197629.25
1.055785635882274e-08,484579.63522592786,-42888925218650.99,301.0557022981944,288923972621482.3
1.075785635882274e-08,500244.2181058595,-43758722268572.97,301.1159211217951,292970716948170.0
1.095785635882274e-08,516152.4568383469,-44637449040791.03,301.17913100400403,297046844829698.44
1.1157856358822741e-08,532308.154364543,-45525924891073.086,301.2454560981191,301156135853665.1
1.1357856358822741e-08,548715.4465826505,-46425012345204.26,301.31502426851364,305302523203399.5
1.1557856358822741e-08,565378.8191244486,-47335619971142.195,301.387967123646,309490107002451.6
1.1757856358822741e-08,582303.1254459078,-48258705474986.195,301.464420044635,313723168433504.4
1.1957856358822741e-08,599493.6063276523,-49195279040567.98,301.54452220911736,318006184726716.4
1.2157856358822742e-08,616955.9108914352,-50146406934730.64,301.62841661009776,322343845118456.7
1.2357856358822742e-08,634696.1192501433,-51113215402836.03,301.7162500695009,326741067888398.25
1.2557856358822742e-08,652720.766921269,-52096894881769.35,301.8081732461314,331203018591040.3
1.2757856358822742e-08,671036.8711474106,-53098704560716.305,301.90434063774353,335735129606986.4
1.2957856358822742e-08,689651.9592823527,-54119977323329.91,302.0049105769253,340343121149811.06
1.3157856358822742e-08,708574.0994178,-55162125108603.7,302.1100452204963,345033023876176.1
1.3357856358822742e-08,727811.9334440705,-56226644731892.266,302.2199105321227,349811203260146.3
1.3557856358822743e-08,747374.7127582299,-57315124212112.75,302.3346762578517,354684385907512.8
1.3757856358822743e-08,767272.3368554784,-58429249656287.375,302.45451589427114,359659688002533.0
1.3957856358822743e-08,787515.395064366,-59570812758315.89,302.5796066490009,364744646097995.9
1.4157856358822743e-08,808115.2117139046,-60741718975279.4,302.7101293932289,369947250480135.7
1.4357856358822743e-08,829083.8950511902,-61943996451758.71,302.84626860600804,375275981362851.3
1.4557856358822743e-08,850434.3902621359,-63179805770702.66,302.98821231003586,380739848191217.3
1.4757856358822743e-08,872180.5369857564,-64451450618424.53,303.13615199864654,386348432362660.75
1.4957856358822742e-08,894337.1317546205,-65761389461461.805,303.2902825537524,392111933705761.75
1.515785635882274e-08,916919.995841142,-67112248344458.27,303.4508021544804,398041221091769.4
1.535785635882274e-08,939946.0490419129,-68506834931089.62,303.6179121762615,404147887593018.94
1.5557856358822737e-08,963433.3899909925,-69948153924536.81,303.7918170801375,410444310645931.3
1.5757856358822736e-08,987401.3836587314,-71439424020354.84,303.9727242920683,416943717724711.5
1.5957856358822734e-08,1011870.7567662086,-72984096563016.19,304.16084407203107,423660258085777.6
1.6157856358822733e-08,1036863.7019277067,-74585876098232.9,304.35638937271983,430609081203015.0
1.635785635882273e-08,1062403.9914259694,-76248743036703.84,304.5595756876698,437806422580867.6
1.655785635882273e-08,1088517.1016285764,-77976978671557.5,304.77062088864716,445269697706864.0
1.6757856358822728e-08,1115230.3491700944,-79775192821912.98,304.9897450521637,453017604988328.2
1.6957856358822727e-08,1142573.0401553835,-81648354409140.81,305.2171702749948,461070238610770.25
1.7157856358822725e-08,1170576.6337864525,-83601825311136.53,305.4531204786002,469449212358912.8
1.7357856358822724e-08,1199274.921980706,-85641397883875.11,305.69782120236846,478177795556769.8
1.7557856358822722e-08,1228704.2267347774,-87773336589417.06,305.9514993856281,487281062412079.5
1.775785635882272e-08,1258903.6171981562,-90004424226259.38,306.21438313839434,496786056194296.44
1.795785635882272e-08,1289915.1486576968,-92342013322408.14,306.48670150084314,506721969836071.8
1.8157856358822718e-08,1321784.1259014313,-94794083324940.45,306.7686841915311,517120344727679.06
1.8357856358822716e-08,1354559.3937320304,-97369304303379.64,307.06056134440746,528015289674437.0
1.8557856358822715e-08,1388293.6577414684,-100077107979418.22,307.36256323469155,539443722211350.1
1.8757856358822713e-08,1423043.8388442844,-102927767004060.2,307.6749199937185,551445634719709.1
1.895785635882271e-08,1458871.4655034237,-105932483527078.48,307.9978613128856,564064388070443.8
1.915785635882271e-08,1495843.1080769447,-109103488245008.8,308.33161613686184,577347035832063.9
1.935785635882271e-08,1534030.86027384,-112454151275305.0,308.67641234625523,591344682430999.1
1.9557856358822707e-08,1573512.873341934,-115999106388700.77,309.03247642996496,606112879043391.0
1.9757856358822705e-08,1614373.9493306237,-119754390342649.05,309.4000331474757,621712061434776.5
1.9957856358822704e-08,1656706.20058796,-123737599299841.98,309.77930518138766,638208034453036.8
2.0157856358822702e-08,1700609.783578726,-127968064591714.03,310.1705127805071,655672508426492.1
2.03578563588227e-08,1746193.7161631538,-132467050402651.75,310.57387339385764,674183693329793.4
2.05578563588227e-08,1793576.7886723294,-137257976312281.17,310.98960129600533,693826957262710.4
2.0757856358822698e-08,1842888.5804762475,-142366668047457.72,311.4179072041267,714695556549304.4
2.0957856358822696e-08,1894270.5952867907,-147821640270255.78,311.8589978872823,736891445616381.4
2.1157856358822695e-08,1947877.5301967752,-153654415772263.9,312.3130757683921,760526175760643.4
2.1357856358822693e-08,2003878.6954574327,-159899886069144.4,312.7803385194456,785721892974707.9
2.1557856358822692e-08,2062459.604274289,-166596719104440.88,313.2609786505124,812612446185360.0
2.175785635882269e-08,2123823.7544940882,-173787820591542.9,313.7551830931507,841344618576513.4
2.195785635882269e-08,2188194.6270073596,-181520856462994.88,314.26313277884947,872079496139124.9
2.2157856358822687e-08,2255817.929052664,-189848844974625.0,314.7850022131683,904993989226849.2
2.2357856358822686e-08,2326964.1144366916,-198830828248524.7,315.32095904627135,940282524717099.6
2.2557856358822684e-08,2401931.21704424,-208532634456847.16,315.87116364058807,978158928401605.1
2.2757856358822683e-08,2481048.038977513,-219027743473975.0,316.43576863635576,1018858519479096.9
2.295785635882268e-08,2564677.740319062,-230398270688006.47,317.0149185158344,1062640441517914.2
2.315785635882268e-08,2653221.8839520602,-242736085797792.8,317.6087491670112,1109790257022060.5
2.3357856358822678e-08,2747124.9962032037,-256144085867785.88,318.217387447637,1160622835796274.5
2.3557856358822677e-08,2846879.712419155,-270737644713798.62,318.84095075046287,1215485570691362.2
2.3757856358822675e-08,2953032.5860848045,-286646263898296.25,319.47954657057096,1274761958049352.2
2.3957856358822674e-08,3066190.6508959117,-304015454280336.44,320.1332720757136,1338875584289261.2
2.4157856358822672e-08,3187028.8374848566,-323008881256348.4,320.8022136805959,1408294564610112.2
2.435785635882267e-08,3316298.360462844,-343810811614982.6,321.4864466260567,1483536484770924.8
2.455785635882267e-08,3454836.2073055864,-366628905392371.9,322.1860345641154,1565173902370963.0
2.4757856358822667e-08,3603575.8786192625,-391697402343054.0,322.90102914987426,1653840470031101.5
2.4957856358822666e-08,3763559.549755308,-419280759736138.8,323.63146964126673,1750237749401616.5
2.5157856358822664e-08,3935951.8469038755,-449677806257314.0,324.3773825076662,1855142792025316.0
2.5357856358822663e-08,4122055.45702815,-483226485967235.0,325.13878104836226,1969416570796976.0
2.555785635882266e-08,4323328.820683696,-520309276671282.7,325.91566502192904,2094013354107981.8
2.575785635882266e-08,4541406.190316464,-561359378842293.3,326.7080202875062,2229991123770667.0
2.595785635882266e-08,4778120.374509719,-606867784568153.6,327.5158184590128,2378523147496718.0
2.6157856358822657e-08,5035528.531357697,-657391351044884.8,328.3390165733151,2540910827066835.0
2.6357856358822655e-08,5315941.422231513,-713562020090646.0,329.17755677335833,2718597954373134.5
2.6557856358822654e-08,5621956.591267302,-776097344217682.0,330.0313660072711,2913186519228651.0
2.6757856358822652e-08,5956495.99659102,-845812501178733.4,330.9003557444307,3126454225190535.0
2.695785635882265e-08,6322848.687289581,-923634002823589.8,331.78442170947295,3360373882589914.0
2.715785635882265e-08,6724719.196178971,-1010615330787386.1,332.6834436352024,3617134861433060.5
2.7357856358822648e-08,7166282.403283914,-1107954761216698.4,333.5972850353483,3899166800743827.0
2.7557856358822646e-08,7652245.719443377,-1217015673651265.8,334.5257929980824,4209165785133544.5
2.7757856358822645e-08,8187919.54443362,-1339349675540009.5,335.468798001189,4550123213756720.0
2.7957856358822643e-08,8779297.070315491,-1476722913886143.0,336.42611374975075,4925357601145613.0
2.8157856358822642e-08,9433144.62922976,-1631145989368282.0,337.3975370371794,5338549563477249.0
2.835785635882264e-08,10157103.92643514,-1804907936117119.2,338.3828476303838,5793780257328814.0
2.855785635882264e-08,10959807.654825645,-2000614782235044.0,339.38180817983675,6295573550584980.0
2.8757856358822637e-08,11851010.157232476,-2221233262155546.5,340.3941641552484,6848942216477963.0
2.8957856358822636e-08,12841734.988174353,-2470140311994610.5,341.41964380752796,7459438451313886.0
2.9157856358822634e-08,13944441.42789901,-2751179042980214.5,342.4579581576451,8133209023741358.0
2.9357856358822633e-08,15173212.218914444,-3068721955566637.0,343.5088010129829,8877055367863848.0
2.955785635882263e-08,16543965.028866885,-3427742227488071.0,344.57184901169046,9698498933418032.0
2.975785635882263e-08,18074690.39342604,-3833893982144289.0,345.646761695519,1.06058521029069e+16
2.995785635882263e-08,19785719.158272464,-4293602518470649.5,346.73318161154344,1.1608294977178472e+16
3.015785635882263e-08,21700022.719408516,-4814165558713020.0,347.8307344431324,1.271595831660903e+16
3.035785635882263e-08,23843549.654383376,-5403866644891989.0,348.9390291704558,1.3940012903843936e+16
3.0557856358822633e-08,26245602.64158957,-6072101886468927.0,350.05765826076356,1.529276556498109e+16
3.0757856358822635e-08,28939259.87781672,-6829521328719070.0,351.1861978885962,1.6787762048114912e+16
3.095785635882264e-08,31961845.52221585,-7688186271087843.0,352.32420818603765,1.8439896910237748e+16
3.115785635882264e-08,35355454.013319716,-8661743914431860.0,353.4712335230327,2.026553050454079e+16
3.135785635882264e-08,39167533.41938248,-9765620752171838.0,354.6268028177359,2.2282613089122856e+16
3.155785635882264e-08,43451533.28455887,-1.1017236139178868e+16,355.79042987678724,2.451081599398666e+16
3.1757856358822644e-08,48267622.71667701,-1.2436237469386798e+16,356.9616137653357,2.6971669685043e+16
3.1957856358822646e-08,53683484.717656195,-1.4044758363920846e+16,358.139839206556,2.9688708450829704e+16
3.215785635882265e-08,59775192.974753365,-1.5867701210781724e+16,359.32457701034707,3.268762130912473e+16
3.235785635882265e-08,66628177.49820515,-1.7933045299247576e+16,360.5152845308058,3.5996408586110016e+16
3.255785635882265e-08,74338285.59552447,-2.0272181651293936e+16,361.71140615201784,3.964554346002632e+16
3.275785635882265e-08,83012944.70042652,-2.292027546237565e+16,362.91237380162005,4.366813758442005e+16
3.2957856358822655e-08,92772433.5095529,-2.591665681869449e+16,364.117607491527,4.810010971357625e+16
3.3157856358822657e-08,103751267.70613366,-2.930524005146804e+16,365.32651588513227,5.2980356045397384e+16
3.335785635882266e-08,116099706.24881232,-3.313497171488029e+16,366.53849689023525,5.835092077615673e+16
3.355785635882266e-08,129985383.75765866,-3.746030672795113e+16,367.7529382768656,6.425716512904135e+16
3.375785635882266e-08,145595073.9190975,-4.234171169689553e+16,368.9692183191105,7.074793287659391e+16
3.3957856358822664e-08,163136588.0382473,-4.78461938300719e+16,370.1867064599891,7.787571012905005e+16
3.4157856358822666e-08,182840811.87257758,-5.404785317007817e+16,371.40476399834523,8.569677690972894e+16
3.435785635882267e-08,204963882.6674263,-6.102845509640882e+16,372.6227447966638,9.427134778930328e+16
3.455785635882267e-08,229789506.86593613,-6.887801919882522e+16,373.83999600867287,1.0366369860783702e+17
3.475785635882267e-08,257631417.2698025,-7.769541969002411e+16,375.0558588255052,1.139422760823404e+17
3.495785635882267e-08,288835966.4723728,-8.758899152299576e+16,376.2696692391635,1.2517978688437478e+17
3.5157856358822675e-08,323784851.1654055,-9.867713531320805e+16,377.4807588219651,1.3745326258342518e+17
3.5357856358822676e-08,362897959.4331759,-1.1108891305143005e+17,378.6884555205915,1.5084409669434662e+17
3.555785635882268e-08,406636330.3961177,-1.249646254461435e+17,379.89208446332935,1.6543804994847667e+17
3.575785635882268e-08,455505212.5606589,-1.4045636057520021e+17,381.09096877903204,1.813252198354106e+17
3.595785635882268e-08,510057203.98934734,-1.5772850237865923e+17,382.28443042630215,1.9859997044347882e+17
3.6157856358822684e-08,570895453.9506032,-1.76958186416057e+17,383.4717910313502,2.1736081866892506e+17
3.6357856358822685e-08,638676902.0737782,-1.983356892727645e+17,384.6523727329535,2.3771027297361568e+17
3.655785635882269e-08,714115527.2648485,-2.2206473706565546e+17,385.8254990329098,2.5975462105516278e+17
3.675785635882269e-08,797985574.7823907,-2.483627177046979e+17,386.9904956503556,2.8360366305715158e+17
3.695785635882269e-08,891124725.993083,-2.7746078095285533e+17,388.14669137829674,3.093703872952119e+17
3.715785635882269e-08,994437171.4904044,-3.096038099314444e+17,389.2934189406787,3.371705859100906e+17
3.7357856358822694e-08,1108896544.5475905,-3.4505024758154675e+17,390.4300158483189,3.6712240838341376e+17
3.7557856358822696e-08,1235548668.3719578,-3.8407176175267526e+17,391.55582525200646,3.993458514652698e+17
3.77578563588227e-08,1375514067.424732,-4.2695273308391526e+17,392.6701967910779,4.3396218476316256e+17
3.79578563588227e-08,1529990190.2658038,-4.739895507024604e+17,393.77248743577195,4.7109331202509414e+17
3.81578563588227e-08,1700253289.0769117,-5.2548970201714394e+17,394.86206232167916,5.1086106900927085e+17
3.83578563588227e-08,1887659899.3111777,-5.817706445505994e+17,395.93829557460487,5.533864597605125e+17
3.8557856358822705e-08,2093647861.9119112,-6.431584498455433e+17,397.0005711241811,5.98788834098018e+17
3.875785635882271e-08,2319736830.3353386,-7.099862120014057e+17,398.0482835045864,6.47185010147601e+17
3.895785635882271e-08,2567528205.289598,-7.825922163392458e+17,399.0808386407464,6.986883468084422e+17
3.915785635882271e-08,2838704441.7454004,-8.613178670368119e+17,400.09765461842807,7.534077721128242e+17
3.935785635882271e-08,3135027675.4485555,-9.465053762896282e+17,401.098162436661,8.114467744980347e+17
