t(s),Adsorbed H on surface 1 (H m-2),solute flux surface 1 (H m-2 s-1),Total T surface 1 (K),0 value at [0] (H m-3)
1e-06,22510.92795614768,-4277533723.755011,300.308953254029,85965394742.58478
2.05e-06,22510.92795614768,-4331267155.96488,300.79481285609967,85965394742.58478
3.1525e-06,22510.92795614768,-4402408884.818974,301.43125936110624,85965394742.58478
4.310125e-06,22510.92795614768,-4490506698.129217,302.20893426342604,85965394742.58478
5.52563125e-06,22510.92795614768,-4595910660.375236,303.1246914788796,85965394742.58478
6.8019128125e-06,22510.92795614768,-4719444580.68381,304.1784242150297,85965394742.58478
8.142008453125e-06,22510.92795614768,-4862284649.978173,305.37176500996407,85965394742.58478
9.54910887578125e-06,22510.92795614768,-5025911864.626515,306.70743896519076,85965394742.58478
1.1026564319570314e-05,22510.92795614768,-5212097371.979252,308.188895664811,85965394742.58478
1.2577892535548829e-05,22510.92795614768,-5422905121.521593,309.82007627094913,85965394742.58478
1.4206787162326272e-05,22510.92795614768,-5660704897.512888,311.6052521303639,85965394742.58478
1.5917126520442588e-05,22510.92795614768,-5928192281.444117,313.5489035211668,85965394742.58478
1.771298284646472e-05,22510.92795614768,-6228413617.21852,315.6556218294119,85965394742.58478
1.9598631988787957e-05,22510.92795614768,-6564794749.798852,317.93002573578207,85965394742.58478
2.1578563588227356e-05,22510.92795614768,-6941172614.749644,320.37668590514903,85965394742.58478
2.3657491767638723e-05,22510.92795614768,-7361828858.433332,323.00005491737954,85965394742.58478
2.584036635602066e-05,22510.92795614768,-7831524654.542777,325.8044005509863,85965394742.58478
2.8132384673821694e-05,22510.92795614768,-8355535796.840727,328.79374141802157,85965394742.58478
3.053900390751278e-05,22510.92795614768,-8939687017.43054,331.9717845525922,85965394742.58478
3.306595410288842e-05,22510.92795614768,-9590384323.805109,335.34186498562775,85965394742.58478
3.571925180803284e-05,22510.92795614768,-10314643983.096455,338.90688765561305,85965394742.58478
3.850521439843448e-05,22510.92795614768,-11120116626.158348,342.6692722469868,85965394742.58478
4.143047511835621e-05,22510.92795614768,-12015104816.843,346.63090173761964,85965394742.58478
4.4501998874274025e-05,502149446.7844066,-133062554184742.55,350.7930755859587,205284703136355.62
4.772709881798773e-05,1711112963.9662437,-322180600546355.75,355.1564686058578,433975591442351.75
5.111345375888712e-05,4209056179.56817,-648151935902513.9,359.7210966655078,786017477711077.9
5.4669126446831475e-05,9148978643.698534,-1236711329781908.0,364.48629040473315,1360652615528409.5
5.8402582769173055e-05,18779086526.216995,-2317661158055462.0,369.45067818883285,2319046753203348.0
6.232271190763171e-05,37484462203.21932,-4320139485042354.0,374.6121795034683,3934276592377349.0
6.64388475030133e-05,73833806143.4483,-8048673628225554.0,379.96800993501466,6672360784895076.0
7.076078987816397e-05,144589733536.84705,-1.501153046535557e+16,385.5146987716019,1.1328946596623732e+16
7.529882937207217e-05,282542916606.81384,-2.803101237631155e+16,391.24812009188184,1.9259930435118644e+16
8.006377084067578e-05,551754277221.6525,-5.2371008164548984e+16,397.1635379808139,3.2768448467311884e+16
8.506695938270958e-05,1077056793315.511,-9.780492652983813e+16,403.255666219763,5.574962153898661e+16
9.032030735184505e-05,2100799562683.2937,-1.8237638729823648e+17,409.5187424461622,9.475597120103368e+16
9.583632271943731e-05,4091196384290.135,-3.3917422794254285e+17,415.94661636304255,1.6074220021347594e+17
0.00010162813885540918,7947515209022.076,-6.284129343239542e+17,422.53285112336687,2.7189486630046157e+17
0.00010770954579817965,15385154856454.977,-1.1587350110432707e+18,429.27083650946344,4.581738013913494e+17
0.00011409502308808864,29651210201729.5,-2.1243279777137554e+18,436.1539120199261,7.685187236070861e+17
0.00012079977424249307,56838158363849.27,-3.8684870727250243e+18,443.17549746247295,1.2820567195885391e+18
0.00012783976295461773,108272709057295.69,-6.991932833692551e+18,450.32922816741416,2.1256097018526776e+18
0.00013523175110234862,204790128214469.94,-1.2531688466033486e+19,457.6090915226669,3.499771530259053e+18
0.00014299333865746606,384256141387236.75,-2.2250844601700168e+19,465.0095611969347,5.717106312140505e+18
0.00015114300559033938,714487558316749.9,-3.908732516170956e+19,472.5257252159171,9.25447221628721e+18
0.00015970015586985636,1314647976966319.0,-6.7798038482064695e+19,480.1534039976265,1.4816230710625735e+19
0.0001686851636633492,2388598714626957.0,-1.1574939600509667e+20,487.889254576135,2.33885778414363e+19
0.00017811942184651667,4271708440598374.5,-1.935542073327381e+20,495.73085754683285,3.622988486584875e+19
0.00018802539293884252,7485288316559329.0,-3.148122814954734e+20,503.67678377080995,5.469963671155271e+19
0.00019802539293884252,1.249263921056245e+16,-4.859088642963105e+20,511.4251475099255,7.87571853173732e+19
0.00020802539293884252,1.981118828238269e+16,-7.095827215634951e+20,518.920181456816,1.078450052652793e+20
0.00021802539293884252,2.998444715168374e+16,-9.847179844145183e+20,526.1804327881628,1.4101172586595957e+20
0.00022802539293884251,4.3524906772581896e+16,-1.3074187684831332e+21,533.2230481010748,1.7718334142991267e+20
0.00023802539293884251,6.091697835003627e+16,-1.673959514065435e+21,540.0637742349937,2.155640867297343e+20
0.0002480253929388425,8.263652265439557e+16,-2.0824443488552134e+21,546.7170169098126,2.5576272822125212e+20
0.00025802539293884254,1.0910032005648022e+17,-2.526233752932266e+21,553.1207474119487,2.970792167727351e+20
0.00026802539293884257,1.4073390318609046e+17,-3.0050987337789546e+21,559.3159958172032,3.3952844685484143e+20
0.0002780253929388426,1.7799218978786294e+17,-3.5207632981442833e+21,565.3365860418965,3.833326999091005e+20
0.0002880253929388426,2.2135390695374112e+17,-4.0743974603012964e+21,571.2012085667753,4.286538875910802e+20
0.00029802539293884264,2.7131676471431507e+17,-4.6666947291881165e+21,576.9236666962428,4.756037547105759e+20
0.00030802539293884267,3.28393763931304e+17,-5.298016282781304e+21,582.5150625434828,5.2426448596347467e+20
0.0003180253929388427,3.93110332068175e+17,-5.968511867822e+21,587.984706249085,5.747033299511682e+20
0.0003280253929388427,4.6600181761319245e+17,-6.678198458113456e+21,593.3406029016232,6.269806259517206e+20
0.00033802539293884275,5.4761101465318765e+17,-7.427009696668576e+21,598.5897525236296,6.81153804123701e+20
0.0003480253929388428,6.384855168427464e+17,-8.214828157155472e+21,603.7383520368783,7.372792545553617e+20
0.0003580253929388428,7.391747675119287e+17,-9.041506431337685e+21,608.7919396910097,7.954130445759603e+20
0.00036802539293884283,8.502267062639873e+17,-9.906879499165883e+21,613.7555029055799,8.556109788653677e+20
0.00037802539293884285,9.7218393579411e+17,-1.081076954657008e+22,618.6335614343058,9.179283091731967e+20
0.0003880253929388429,1.1055793573371556e+18,-1.1752984195144626e+22,623.4302331229211,9.824193450296563e+20
0.0003980253929388429,1.2509312530464276e+18,-1.273330930463886e+22,628.1492869488569,1.0491372085248042e+21
0.00040802539293884293,1.4087378286186173e+18,-1.3751497791950704e+22,632.7941865051421,1.1181339782747365e+21
0.00041802539293884296,1.5794712670033085e+18,-1.4807256133459346e+22,637.3681261360578,1.1894614630381605e+21
0.000428025392938843,1.763571379803996e+18,-1.5900230317559314e+22,641.8740613120409,1.2631728260970636e+21
0.000438025392938843,1.9614389717087744e+18,-1.702999296851485e+22,646.314734416192,1.3393252441237016e+21
0.00044802539293884304,2.173429049323241e+18,-1.8196033169725462e+22,650.6926968207537,1.4179837284484619e+21
0.00045802539293884306,2.3998440040093215e+18,-1.9397750202207518e+22,655.0103279304616,1.4992261655359932e+21
0.0004680253929388431,2.6409268748748513e+18,-2.0634452007541067e+22,659.269851718991,1.5831495513968468e+21
0.0004780253929388431,2.896854751122126e+18,-2.1905358723211793e+22,663.473351172466,1.669877308068071e+21
0.00048802539293884314,3.167732303504029e+18,-2.3209611165475023e+22,667.6227809727152,1.7595674864286213e+21
0.0004980253929388432,3.4535853466558275e+18,-2.454628368831072e+22,671.7199786889649,1.8524215850108752e+21
0.0005080253929388432,3.7543542346958705e+18,-2.591440046551219e+22,675.7666746952573,1.9486936543313684e+21
0.0005180253929388432,4.069886791717757e+18,-2.731295396595367e+22,679.7645009958115,2.0486993133444771e+21
0.0005280253929388432,4.3999303886909225e+18,-2.8740924236019857e+22,683.7149991055549,2.1528242768169478e+21
0.0005380253929388433,4.744122712379082e+18,-3.019729759520594e+22,687.6196271131686,2.261531974375631e+21
0.0005480253929388433,5.101980743954013e+18,-3.1681083479086e+22,691.479766029436,2.375369821744566e+21
0.0005580253929388433,5.472887488498413e+18,-3.31913284317245e+22,695.2967255124242,2.494973667409226e+21
0.0005680253929388434,5.856076083568603e+18,-3.472712661758734e+22,699.0717490419695,2.6210698626972034e+21
0.0005780253929388434,6.250611075647512e+18,-3.628762667986216e+22,702.8060186114491,2.7544742684921283e+21
0.0005880253929388434,6.655366894744426e+18,-3.787203526160213e+22,706.5006589902368,2.8960872921074007e+21
0.0005980253929388434,7.069003882720759e+18,-3.947961801274616e+22,710.1567416066396,3.0468837219215585e+21
0.0006080253929388435,7.489942636933574e+18,-4.110969938051207e+22,713.775288090328,3.2078956776030423e+21
0.0006180253929388435,7.916337905479793e+18,-4.276166291159242e+22,717.35727351387,3.3801864184604367e+21
0.0006280253929388435,8.346053788898626e+18,-4.443495412762422e+22,720.9036293625894,3.5648120734701375e+21
0.0006380253929388435,8.776642525382591e+18,-4.612908825139704e+22,724.4152462611765,3.762767644446084e+21
0.0006480253929388436,9.205329605905747e+18,-4.7843665083959114e+22,727.8929764808519,3.974913031996266e+21
0.0006580253929388436,9.629008316505307e+18,-4.957839307054887e+22,731.3376362507238,4.201874602409235e+21
0.0006680253929388436,1.0044246980877169e+19,-5.133312387142606e+22,734.7500078886145,4.4439183752785974e+21
0.0006780253929388436,1.0447312163354126e+19,-5.3107897364343436e+22,738.130841771581,4.700792905100728e+21
0.0006880253929388437,1.0834210952951972e+19,-5.4902994611209425e+22,741.4808581595606,4.971544218568586e+21
0.0006980253929388437,1.1200755323845593e+19,-5.6718992622838975e+22,744.8007488852006,5.254312754399195e+21
0.0007080253929388437,1.1542651573009924e+19,-5.855680959093909e+22,748.0911789226346,5.546133909732065e+21
0.0007180253929388437,1.1855617804638058e+19,-6.041772304050109e+22,751.35278784513,5.842779228204632e+21
0.0007280253929388438,1.2135531556324862e+19,-6.2303337753945984e+22,754.5861911818271,6.138691629817107e+21
0.0007380253929388438,1.2378606379661156e+19,-6.42154788730999e+22,757.7919816809065,6.42707837579516e+21
0.0007480253929388438,1.2581588883705289e+19,-6.6155993496256615e+22,760.9707304888157,6.700218481948752e+21
0.0007580253929388439,1.2741956595693158e+19,-6.812646562372387e+22,764.1229882508599,6.950006024474627e+21
0.0007680253929388439,1.2858085932774406e+19,-7.012788277057481e+22,767.2492861397858,7.168686256150339e+21
0.0007780253929388439,1.2929355942725046e+19,-7.216032587372416e+22,770.3501368186146,7.349666517858047e+21
0.0007880253929388439,1.2956163419238517e+19,-7.422276770219308e+22,773.4260353430941,7.48823477494983e+21
0.000798025392938844,1.2939847317036292e+19,-7.631304448847957e+22,776.4774600065863,7.582027522039982e+21
0.000808025392938844,1.2882545042680488e+19,-7.842801552950758e+22,779.504873134391,7.631158003483003e+21
0.000818025392938844,1.2787017718523228e+19,-8.056386957935294e+22,782.5087218289714,7.638012108494715e+21
0.000828025392938844,1.2656479988929384e+19,-8.271650130984274e+22,785.489438671291,7.606798035714039e+21
0.0008380253929388441,1.2494456180423528e+19,-8.488187741358091e+22,788.4474423804833,7.542970127400049e+21
0.0008480253929388441,1.2304667810763446e+19,-8.705633312394293e+22,791.3831384352553,7.452638929244021e+21
0.0008580253929388441,1.2090945418825056e+19,-8.923677029817039e+22,794.2969196598301,7.34204748012118e+21
0.0008680253929388441,1.18571534424983e+19,-9.142075468302104e+22,797.1891667764535,7.217157450850465e+21
0.0008780253929388442,1.16071190131627e+19,-9.36065269380395e+22,800.060248927327,7.083359063556564e+21
0.0008880253929388442,1.134456070145682e+19,-9.579294973757261e+22,802.9105241674553,6.945298693387866e+21
0.0008980253929388442,1.1073018303538797e+19,-9.79794145506557e+22,805.7403399306827,6.806806495127602e+21
0.0009080253929388442,1.079578788647141e+19,-1.0016572921155151e+23,808.5500334710977,6.67090115049456e+21
0.0009180253929388443,1.051586711175798e+19,-1.023520030430314e+23,811.3399322804438,6.539848043098092e+21
0.0009280253929388443,1.0235914859774212e+19,-1.045385413108171e+23,814.110354484031,6.415249376532558e+21
0.0009380253929388443,9.958227264184621e+18,-1.0672575597742489e+23,816.8616092156212,6.298148706983317e+21
0.0009480253929388443,9.684730226313478e+18,-1.0891409565878005e+23,819.5939969737558,6.189136981824705e+21
0.0009580253929388444,9.41698682109372e+18,-1.1110399465155601e+23,822.307809959458,6.088451616820501e+21
0.0009680253929388444,9.156216937515557e+18,-1.1329583897215683e+23,825.0033323973865,5.996063878772189e+21
0.0009780253929388444,8.903326012101564e+18,-1.1548994637811596e+23,827.6808408408455,5.911752645391952e+21
0.0009880253929388445,8.658939695206632e+18,-1.176865571061229e+23,830.3406044621145,5.835164502769516e+21
0.0009980253929388445,8.423441584005793e+18,-1.1988583228709138e+23,832.98288532857,5.76586125992931e+21
0.0010080253929388445,8.197011622345581e+18,-1.2208785747112733e+23,835.6079386655991,5.703356506721668e+21
0.0010180253929388445,7.979663297890252e+18,-1.2429264924378347e+23,838.2160131068139,5.647143004705738e+21
0.0010280253929388446,7.771278288085546e+18,-1.2650016344418418e+23,840.8073509333773,5.596712635072133e+21
0.0010380253929388446,7.571637675340275e+18,-1.2871030393792809e+23,843.382188301077,5.551570443880473e+21
0.0010480253929388446,7.380449247550953e+18,-1.3092293126509566e+23,845.9407554579501,5.511244097025809e+21
0.0010580253929388446,7.197370716636847e+18,-1.331378707407976e+23,848.48327695132,5.475289827018511e+21
0.0010680253929388447,7.022028927872532e+18,-1.3535491978370335e+23,851.0099718262768,5.443295744539857e+21
0.0010780253929388447,6.854035304158176e+18,-1.3757385436902594e+23,853.5210538144908,5.414883207525201e+21
0.0010880253929388447,6.692997881650674e+18,-1.397944345944693e+23,856.0167315154401,5.389706791670844e+21
0.0010980253929388447,6.538530356746166e+18,-1.4201640939147798e+23,858.497208569228,5.367453285037111e+21
0.0011080253929388448,6.39025860024598e+18,-1.4423952023761307e+23,860.962683822261,5.34783999193173e+21
0.0011180253929388448,6.247825020560408e+18,-1.4646350537248834e+23,863.4133514855985,5.330612848629225e+21
0.0011280253929388448,6.110891314451449e+18,-1.4868810063219874e+23,865.8494012868686,5.315543879112278e+21
0.0011380253929388448,5.979139846649739e+18,-1.5091304285771916e+23,868.27101861567,5.302429040424441e+21
0.0011480253929388449,5.852274057404502e+18,-1.5313807109531622e+23,870.6783846626357,5.291085850458865e+21
0.001158025392938845,5.730018157499138e+18,-1.553629278050559e+23,873.0716765536275,5.281351157293061e+21
0.001168025392938845,5.612116336452721e+18,-1.5758735974805575e+23,875.4510674774099,5.273079046536957e+21
0.001178025392938845,5.498331662547238e+18,-1.598111186169589e+23,877.816726808909,5.266138912637443e+21
0.001188025392938845,5.388444811422835e+18,-1.6203396145784824e+23,880.1688202271578,5.26041370616625e+21
0.001198025392938845,5.282252724057098e+18,-1.6425565092965622e+23,882.5075098288198,5.255798359045229e+21
0.001208025392938845,5.179567265251323e+18,-1.664759554371553e+23,884.8329542371503,5.252198382363717e+21
0.001218025392938845,5.080213930053669e+18,-1.6869464916786908e+23,887.1453087064632,5.249528626698596e+21
0.001228025392938845,4.98403062730612e+18,-1.709115120605419e+23,889.4447252231696,5.247712192085338e+21
0.0012380253929388451,4.890866555992783e+18,-1.7312632972076724e+23,891.7313526021129,5.246679473225399e+21
0.0012480253929388451,4.800581180456056e+18,-1.7533889330476642e+23,894.0053365801067,5.246367325451154e+21
0.0012580253929388452,4.713043304072583e+18,-1.7754899937886213e+23,896.2668199053462,5.246718337132574e+21
0.0012680253929388452,4.628130236882614e+18,-1.7975644976643622e+23,898.5159424237077,5.247680195286224e+21
0.0012780253929388452,4.5457270503335905e+18,-1.8196105138841028e+23,900.7528411618451,5.249205132216672e+21
0.0012880253929388452,4.4657259112035604e+18,-1.8416261610202386e+23,902.9776504071968,5.251249442313119e+21
0.0012980253929388453,4.3880254865053906e+18,-1.8636096054172598e+23,905.1905017851593,5.25377305942474e+21
0.0013080253929388453,4.31253041143057e+18,-1.8855590596406995e+23,907.3915243334349,5.256739186451989e+21
0.0013180253929388453,4.2391508129479393e+18,-1.9074727809812186e+23,909.5808445736864,5.260113969939335e+21
0.0013280253929388453,4.1678018823728896e+18,-1.929349070026146e+23,911.7585865807383,5.263866213482836e+21
0.0013380253929388454,4.0984034909694264e+18,-1.9511862692865972e+23,913.9248720489431,5.2679671246182e+21
0.0013480253929388454,4.0308798433680645e+18,-1.972982761920517e+23,916.0798203570166,5.272390090758803e+21
0.0013580253929388454,3.96515916426346e+18,-1.9947369704982507e+23,918.2235486298549,5.27711048021162e+21
0.0013680253929388455,3.901173414453285e+18,-2.0164473558497386e+23,920.3561717986809,5.282105465081401e+21
0.0013780253929388455,3.83885803281412e+18,-2.0381124159690097e+23,922.4778026589759,5.28735386321124e+21
0.0013880253929388455,3.7781517012690575e+18,-2.059730684972765e+23,924.5885519263023,5.29283599676432e+21
0.0013980253929388455,3.7189961301947295e+18,-2.081300732124781e+23,926.6885282905565,5.298533565425544e+21
0.0014080253929388456,3.661335862054354e+18,-2.1028211609092923e+23,928.77783846835,5.304429532428457e+21
0.0014180253929388456,3.6051180913316577e+18,-2.1242906081377692e+23,930.8565872532542,5.310508021861881e+21
0.0014280253929388456,3.5502924990810977e+18,-2.1457077431220925e+23,932.9248775650403,5.316754226018137e+21
0.0014380253929388456,3.496811100624097e+18,-2.167071266869792e+23,934.9828104968016,5.32315432155608e+21
0.0014480253929388457,3.4446281050960773e+18,-2.188379911325019e+23,937.0304853607961,5.329695393544895e+21
0.0014580253929388457,3.393699785704379e+18,-2.209632438638612e+23,939.0679997326816,5.336365366495868e+21
0.0014680253929388457,3.34398435968836e+18,-2.230827640471284e+23,941.0954494943915,5.343152941641072e+21
0.0014780253929388457,3.295441877086713e+18,-2.2519643373335642e+23,943.1129288758807,5.350047539808668e+21
0.0014880253929388458,3.248034117518695e+18,-2.2730413779338735e+23,945.1205304950585,5.35703924926103e+21
0.0014980253929388458,3.20172449426845e+18,-2.294057638562194e+23,947.1183453967825,5.364118778043011e+21
0.0015080253929388458,3.1564779650382464e+18,-2.3150120225023373e+23,949.1064630908194,5.371277410376919e+21
0.0015180253929388458,3.112260948803891e+18,-2.3359034594517873e+23,951.0849715882855,5.378506966666642e+21
0.0015280253929388459,3.0690412482611123e+18,-2.356730904966749e+23,953.053957437141,5.385799766794303e+21
0.001538025392938846,3.026787977403901e+18,-2.377493339923462e+23,955.0135057565698,5.393148596379539e+21
0.001548025392938846,2.985471493820227e+18,-2.398189769998532e+23,956.9637002703976,5.400546675728628e+21
0.001558025392938846,2.9450633353310065e+18,-2.4188192251619033e+23,958.9046233394427,5.407987631213398e+21
0.001568025392938846,2.9055361606339517e+18,-2.439380759173981e+23,960.8363559926378,5.415465468843259e+21
0.001578025392938846,2.8668636936421084e+18,-2.4598734491272567e+23,962.7589779580595,5.422974549906805e+21
0.001588025392938846,2.8290206712418514e+18,-2.4802963949560267e+23,964.6725676918876,5.430509568363275e+21
0.001598025392938846,2.791982794212063e+18,-2.5006487189942956e+23,966.5772024074695,5.438065529973509e+21
