t(s),Adsorbed H on surface 1 (H m-2),solute flux surface 1 (H m-2 s-1),Total T surface 1 (K),0 value at [0] (H m-3)
1e-08,1376767.595590247,-3342036668172.5767,300.36150689232176,525053596259546.7
2.05e-08,3853676.7256814754,-9622638751062.443,300.93002610327545,886592303622085.8
3.1525e-08,7291141.444952074,-18243725695889.074,301.67475994653785,1149725372798367.5
4.3101250000000004e-08,11722720.737464748,-29355833764900.445,302.58476038921486,1379357009825863.8
5.5256312500000004e-08,17326737.827972278,-43510928869615.44,303.65635048201693,1616861504641221.0
6.801912812500001e-08,24427765.71159818,-61691715916319.38,304.889410529012,1891823854761387.0
8.142008453125001e-08,33526297.816035032,-85430283242794.11,306.28585702108296,2229813909753950.0
9.549108875781251e-08,45361047.872892536,-117038541595523.16,307.8488859586613,2658020499504738.0
1.1026564319570314e-07,61015471.319360465,-160000933951106.5,309.58254232270974,3210048599313146.0
1.2577892535548832e-07,82090294.19518213,-219622056859165.5,311.4914477899078,3930939730945363.0
1.4206787162326273e-07,110979877.07242338,-304091288893821.5,313.5806122278666,4883440586741460.0
1.5917126520442587e-07,151316732.55836433,-426245423301350.56,315.8552922967163,6156711282624834.0
1.7712982846464716e-07,208693407.03792605,-606517871332875.8,318.320877633268,7879072698606468.0
1.9598631988787953e-07,291848249.5042447,-877929842944119.5,320.98279360862904,1.0237132500786452e+16
2.157856358822735e-07,414636314.4817027,-1294633172178628.8,323.84641420321486,1.3504862686865708e+16
2.357856358822735e-07,589787230.4671444,-1913513258810600.0,326.7979479786673,1.787540828469798e+16
2.557856358822735e-07,837039657.309942,-2822415937589374.0,329.7987859811103,2.365482401252789e+16
2.7578563588227355e-07,1185686722.7208614,-4153679398718619.0,332.8406505311209,3.1277609910439476e+16
2.9578563588227357e-07,1676407334.5742216,-6096622356305361.0,335.916290519075,4.130041481446228e+16
3.157856358822736e-07,2365389268.331629,-8920049621105111.0,339.01931110917775,5.443315527004783e+16
3.357856358822736e-07,3329810167.420659,-1.3002678660056606e+16,342.14404706442974,7.1576269607002584e+16
3.5578563588227363e-07,4675068623.502529,-1.887386436929788e+16,345.28546222907966,9.386537324775747e+16
3.7578563588227365e-07,6544253371.161089,-2.726757271720858e+16,348.43906764986457,1.227244916878513e+17
3.9578563588227367e-07,9130451837.288536,-3.919321945190576e+16,351.6008537430033,1.5992908521276915e+17
4.157856358822737e-07,12692632035.885397,-5.6027753216933464e+16,354.7672333724056,2.0768014296269856e+17
4.357856358822737e-07,17575986016.431343,-7.963422559245696e+16,357.9349935810203,2.686906845768783e+17
4.5578563588227373e-07,24237800482.92855,-1.1251305326432768e+17,361.10125429424636,3.4628605631668525e+17
4.7578563588227375e-07,33280122304.9186,-1.5799323610655914e+17,364.2634327145815,4.44519441533725e+17
4.957856358822737e-07,45490714671.13597,-2.2047194254637107e+17,367.4192124139691,5.6830402040467174e+17
5.157856358822737e-07,61894054489.218956,-3.057120998951596e+17,370.56651634176035,7.235632094624182e+17
5.357856358822738e-07,83814403823.71242,-4.212089187748073e+17,373.70348312481246,9.174003865913395e+17
5.557856358822738e-07,112953297770.9375,-5.766376206088278e+17,376.8284461572051,1.158289461314147e+18
5.757856358822738e-07,151484127808.23676,-7.843960058327848e+17,379.93991507045797,1.4562875833846648e+18
5.957856358822738e-07,202166862452.92767,-1.0602568761117738e+18,383.03655924827063,1.8232711954456927e+18
6.157856358822738e-07,268486334651.28308,-1.4241466827554918e+18,386.11719310755336,2.2731965288337815e+18
6.357856358822739e-07,354817935825.54565,-1.9010680908889375e+18,389.1807629136308,2.8223855169963766e+18
6.557856358822739e-07,466624987599.32587,-2.5221853995425654e+18,392.226334934631,3.4898379603185183e+18
6.757856358822739e-07,610692511119.7129,-3.3260929167496023e+18,395.25308477022355,4.29757062166245e+18
6.957856358822739e-07,795402577422.5452,-4.360287432075419e+18,398.2602877145085,5.270983766091556e+18
7.157856358822739e-07,1031056896928.766,-5.682866834539425e+18,401.2473100331655,6.439255483752197e+18
7.35785635882274e-07,1330252788120.0693,-7.364477671696098e+18,404.2136010518296,7.835763954499504e+18
7.55785635882274e-07,1708319150716.9248,-9.490535018561305e+18,407.1586859666577,9.498537629346365e+18
7.75785635882274e-07,2183819553131.8599,-1.2163738409139173e+19,410.08215929986636,1.1470733119930335e+19
7.95785635882274e-07,2779130023392.044,-1.5506907767970388e+19,412.9836789329504,1.380114040550203e+19
8.15785635882274e-07,3521099602921.8203,-1.9666163257386324e+19,415.8629606586982,1.6544714789814557e+19
8.357856358822741e-07,4441802179427.655,-2.4814472724576154e+19,418.71977320031675,1.97631348698632e+19
8.557856358822741e-07,5579388554649.139,-3.115558999109019e+19,421.5539336521119,2.3525385616473625e+19
8.757856358822741e-07,6979048121130.44,-3.892840657907418e+19,424.3653033014354,2.7908365514697417e+19
8.957856358822741e-07,8694089915856.989,-4.841173861919157e+19,427.15378379618943,3.2997516570926375e+19
9.157856358822741e-07,10787153184276.756,-5.992956964286385e+19,429.91931362610563,3.888747586417985e+19
9.357856358822742e-07,13331557922843.6,-7.385676873588582e+19,432.6618648894514,4.568274720137722e+19
9.55785635882274e-07,16412806169017.094,-9.06253021324002e+19,435.3814403198174,5.34983913303479e+19
9.75785635882274e-07,20130245072124.383,-1.1073095476863879e+20,438.07807055024534,6.246073306912866e+19
9.957856358822741e-07,24598903004371.168,-1.3474057660541583e+20,440.75181159428075,7.270808362467086e+19
1.0157856358822741e-06,29951509271496.242,-1.63299828814125e+20,443.4027425255421,8.439146547481531e+19
1.0357856358822742e-06,36340712283091.27,-1.9714161631817312e+20,446.03096333920496,9.767538679900817e+19
1.0557856358822742e-06,43941503196203.66,-2.3709488615844964e+20,448.63659298037004,1.1273857655356003e+20
1.0757856358822742e-06,52953859834090.52,-2.8409411019472306e+20,451.21976752571504,1.2977475210695495e+20
1.0957856358822742e-06,63605621780854.805,-3.391893071707433e+20,453.7806385060702,1.489933905063514e+20
1.1157856358822742e-06,76155608390258.94,-4.035566348486539e+20,456.3193713586901,1.706205015341742e+20
1.1357856358822743e-06,90896991292245.39,-4.785095510639887e+20,458.83614399898283,1.9489940175094858e+20
1.1557856358822743e-06,108160932826009.7,-5.6551053980728295e+20,461.33114550236934,2.2209148723459408e+20
1.1757856358822743e-06,128320501609235.97,-6.661833953603909e+20,463.804574887756,2.5247700254268873e+20
1.1957856358822743e-06,151794876168087.44,-7.823260541783078e+20,466.25663999480895,2.863558032718864e+20
1.2157856358822743e-06,179053847195995.5,-9.159239605677596e+20,468.68755644790957,3.240481094064701e+20
1.2357856358822744e-06,210622628573972.62,-1.0691639482119204e+21,471.0975467002228,3.6589524642682274e+20
1.2557856358822744e-06,247086986762426.7,-1.2444486151582174e+21,473.4868391518952,4.122603708820931e+20
1.2757856358822744e-06,289098697553783.06,-1.4444111649396603e+21,475.8556673368313,4.63529176811591e+20
1.2957856358822744e-06,337381338444297.8,-1.671930680949268e+21,478.204269172989,5.201105790197164e+20
1.3157856358822744e-06,392736424027622.44,-1.930147794924285e+21,480.5328862715045,5.824373687608929e+20
1.3357856358822745e-06,456049890814950.6,-2.2224807033066399e+21,482.84176330033597,6.509668368664651e+20
1.3557856358822745e-06,528298936727210.7,-2.552641477198526e+21,485.1311473984441,7.261813587362917e+20
1.3757856358822745e-06,610559219161176.2,-2.9246526024879104e+21,487.40128763684925,8.085889349159658e+20
1.3957856358822745e-06,704012413977761.4,-3.342863676325308e+21,489.65243452315065,8.987236801775771e+20
1.4157856358822745e-06,809954135968242.8,-3.8119681743352475e+21,491.88483954638707,9.971462531111286e+20
1.4357856358822746e-06,929802219290228.9,-4.337020189573969e+21,494.0987547593261,1.104444217207294e+21
1.4557856358822746e-06,1065105353994057.0,-4.92345102913404e+21,496.2944323954907,1.221232323265111e+21
1.4757856358822746e-06,1217552072042690.2,-5.577085537279779e+21,498.4721245184378,1.3481527016862838e+21
1.4957856358822746e-06,1388980073121520.8,-6.304157994914857e+21,500.63208270097675,1.4858749518187667e+21
1.5157856358822746e-06,1581385876993239.0,-7.111327423891531e+21,502.77455773218026,1.6350961139873856e+21
1.5357856358822747e-06,1796934785129112.0,-8.005692101051439e+21,504.8997993502052,1.796540508203125e+21
1.5557856358822747e-06,2037971129791789.0,-8.994803060854678e+21,507.00805599907534,1.970959421784346e+21
1.5757856358822747e-06,2307028783605538.5,-1.0086676336974376e+22,509.0995746077094,2.1591306262678673e+21
1.5957856358822747e-06,2606841896877576.0,-1.128980366234096e+22,511.1746003895997,2.3618577020574913e+21
1.6157856358822747e-06,2940355823481186.5,-1.2613161313934737e+22,513.2333766616632,2.579969147283387e+21
1.6357856358822748e-06,3310738188934352.5,-1.4066216753376092e+22,515.276144680886,2.8143172453677075e+21
1.6557856358822748e-06,3721390046370618.5,-1.5658932677415843e+22,517.303143497472,3.0657766638634475e+21
1.6757856358822748e-06,4175957057376678.5,-1.7401768054325137e+22,519.3146098233158,3.335242755321403e+21
1.6957856358822748e-06,4678340625152718.0,-1.930567568364659e+22,521.310777914679,3.623629529325302e+21
1.7157856358822748e-06,5232708897145539.0,-2.138209577877328e+22,523.291879468033,3.9318672635180336e+21
1.7357856358822749e-06,5843507543244563.0,-2.364294503561153e+22,525.2581435281195,4.2608997205414794e+21
1.7557856358822749e-06,6515470203880953.0,-2.6100600617685347e+22,527.2097964073187,4.6116809374647515e+21
1.775785635882275e-06,7253628490032878.0,-2.876787846035189e+22,529.1470616154905,4.985171554642647e+21
1.795785635882275e-06,8063321404362964.0,-3.1658005276561836e+22,531.0701597995173,5.382334652206086e+21
1.815785635882275e-06,8950204039697512.0,-3.4784583636422243e+22,532.9793086918114,5.80413106473691e+21
1.835785635882275e-06,9920255398063018.0,-3.816154949572872e+22,534.8747230671227,6.251514148337224e+21
1.855785635882275e-06,1.0979785160853004e+16,-4.180312156795373e+22,536.7566147070044,6.72542397948957e+21
1.875785635882275e-06,1.2135439228812106e+16,-4.572374197359515e+22,538.6251923713577,7.226780972050698e+21
1.895785635882275e-06,1.3394203839878106e+16,-4.993800766415503e+22,540.4806617764997,7.756478907644926e+21
1.915785635882275e-06,1.4763408064082212e+16,-5.446059220931612e+22,542.3232255792511,8.315377385825796e+21
1.935785635882275e-06,1.6250724468318586e+16,-5.930615765895127e+22,544.1530833665579,8.904293713814118e+21
1.9557856358822747e-06,1.786416774057698e+16,-6.448925635000137e+22,545.9704316502132,9.523994271504094e+21
1.9757856358822745e-06,1.9612091063968532e+16,-7.002422272484386e+22,547.775463866259,1.0175185405768855e+22
1.9957856358822743e-06,2.1503180036389984e+16,-7.592505546447498e+22,549.5683703786797,1.0858503928808401e+22
2.015785635882274e-06,2.3546443942805976e+16,-8.22052905171426e+22,551.3493384870352,1.157450731813489e+22
2.035785635882274e-06,2.5751204204700604e+16,-8.887786591960514e+22,553.1185524376891,1.2323663740387944e+22
2.0557856358822737e-06,2.8127079856009428e+16,-9.595497966034755e+22,554.8761934383299,1.3106342046933436e+22
2.0757856358822735e-06,3.06839699274176e+16,-1.0344794221536739e+23,556.6224396754853,1.3922801915324094e+22
2.0957856358822733e-06,3.3432032661738532e+16,-1.1136702578806415e+23,558.3574663347604,1.4773184336172585e+22
2.115785635882273e-06,3.63816615323539e+16,-1.197213126923708e+23,560.0814456235528,1.5657502668575612e+22
2.135785635882273e-06,3.954345809425221e+16,-1.2851854571611694e+23,561.7945467960031,1.6575634507488205e+22
2.1557856358822728e-06,4.292820176250688e+16,-1.3776498367008665e+23,563.4969361799632,1.75273146217996e+22
2.1757856358822726e-06,4.6546816685083576e+16,-1.4746526564478395e+23,565.1887772057817,1.8512129230617757e+22
2.1957856358822724e-06,5.041033595415379e+16,-1.5762228773703975e+23,566.8702304367171,1.9529511885746567e+22
2.215785635882272e-06,5.452986348059031e+16,-1.6823709614703634e+23,568.541453600798,2.0578741218969473e+22
2.235785635882272e-06,5.8916533937487096e+16,-1.7930880055860562e+23,570.2026016239728,2.1658940792213823e+22
2.255785635882272e-06,6.3581471257375976e+16,-1.908345115799206e+23,571.8538266643877,2.2769081256034292e+22
2.2757856358822716e-06,6.853574624092849e+16,-2.0280930572101036e+23,573.4952781476683,2.3907984976737867e+22
2.2957856358822714e-06,7.379033389871824e+16,-2.1522622090861038e+23,575.127102803055,2.507433323516436e+22
2.3157856358822712e-06,7.935607119841144e+16,-2.280762848867247e+23,576.7494447002837,2.6266676031718475e+22
2.335785635882271e-06,8.524361592404046e+16,-2.4134857803214188e+23,578.3624452870966,2.7483444454630105e+22
2.355785635882271e-06,9.146340736868594e+16,-2.550303311490094e+23,579.9662434272725,2.8722965484358544e+22
2.3757856358822706e-06,9.802562957448243e+16,-2.6910705772819816e+23,581.5609754390896,2.998347902007714e+22
2.3957856358822705e-06,1.0494017780277794e+17,-2.835627190091276e+23,583.1467751341264,3.126315682840301e+22
2.4157856358822703e-06,1.12216628862002e+17,-2.983799190167841e+23,584.7237738563177,3.2560123034491215e+22
2.43578563588227e-06,1.1986421584202627e+17,-3.135401256237519e+23,586.2921005211937,3.3872475705897633e+22
2.45578563588227e-06,1.2789180770350459e+17,-3.290239126674022e+23,587.851881655227,3.5198309024591027e+22
2.4757856358822697e-06,1.3630789405207722e+17,-3.448112172953768e+23,589.403241435228,3.653573550593471e+22
2.4957856358822695e-06,1.451205752947618e+17,-3.6088160607084136e+23,590.9463017277254,3.788290770821837e+22
2.5157856358822693e-06,1.5433681085568525e+17,-3.771901361065249e+23,592.4757255308706,3.923627121646983e+22
2.535785635882269e-06,1.6396311355802234e+17,-3.937127562219079e+23,593.9931360189865,4.059370307134552e+22
2.555785635882269e-06,1.7400567360759466e+17,-4.1043027309186536e+23,595.5001958272258,4.195361529876572e+22
2.5757856358822687e-06,1.844703201478487e+17,-4.2732322932768746e+23,596.9976306690498,4.331452877859081e+22
2.5957856358822685e-06,1.953625301065233e+17,-4.443731250494738e+23,598.4859234042492,4.4675106117058455e+22
2.6157856358822683e-06,2.0668744709839565e+17,-4.615626828556769e+23,599.9654430396572,4.603415874322857e+22
2.635785635882268e-06,2.1844990523672224e+17,-4.788760015265035e+23,601.4364924320035,4.7390650290518765e+22
2.655785635882268e-06,2.3065445589069274e+17,-4.962986584140011e+23,602.8993310868121,4.874369710363305e+22
2.6757856358822678e-06,2.4330539616385834e+17,-5.1381777105903126e+23,604.3541877709662,5.009256593189851e+22
2.6957856358822676e-06,2.5640679813797296e+17,-5.314220217553847e+23,605.8012682027445,5.1436668990318675e+22
2.7157856358822674e-06,2.6996253807293555e+17,-5.491016480500553e+23,607.2407600815504,5.277555667854373e+22
2.735785635882267e-06,2.839763248656443e+17,-5.6684840259786165e+23,608.6728365581428,5.410890832021644e+22
2.755785635882267e-06,2.984517271755186e+17,-5.846554863692177e+23,610.0976587319904,5.543652132820941e+22
2.775785635882267e-06,3.133921987297529e+17,-6.025174596754368e+23,611.5153775109989,5.675829921997987e+22
2.7957856358822666e-06,3.288011014275604e+17,-6.20430135748935e+23,612.926135036188,5.807423890506646e+22
2.8157856358822664e-06,3.4468172596762835e+17,-6.383904616808819e+23,614.3300657994184,5.93844176468562e+22
2.8357856358822662e-06,3.6103730982379206e+17,-6.563963913887661e+23,615.7272975383347,6.068898006655702e+22
2.855785635882266e-06,3.778710524875941e+17,-6.744467549866835e+23,617.1179519656175,6.198812551234533e+22
2.875785635882266e-06,3.9518612798042074e+17,-6.925411284961475e+23,618.5021453723847,6.3282096064508606e+22
2.8957856358822657e-06,4.129856947104097e+17,-7.106797073017763e+23,619.8799891342018,6.457116539146546e+22
2.9157856358822655e-06,4.312729028091377e+17,-7.288631861622832e+23,621.2515901404946,6.585562861495874e+22
2.9357856358822653e-06,4.5005089912973965e+17,-7.470926479678078e+23,622.6170511628111,6.713579328811666e+22
2.955785635882265e-06,4.6932283012177715e+17,-7.653694628219983e+23,623.9764711736424,6.8411971539667104e+22
2.975785635882265e-06,4.890918428195542e+17,-7.836951984470098e+23,625.3299456247769,6.968447339292015e+22
2.9957856358822647e-06,5.093610841908384e+17,-8.020715423830057e+23,626.6775666921849,7.0953601230298444e+22
3.0157856358822645e-06,5.301336990935262e+17,-8.205002359949306e+23,628.0194234929496,7.221964534369172e+22
3.0357856358822643e-06,5.514128270803193e+17,-8.38983019917108e+23,629.3556022786352,7.3482880487833085e+22
3.055785635882264e-06,5.732015982776684e+17,-8.575215902642876e+23,630.6861866086435,7.474356333793908e+22
3.075785635882264e-06,5.955031285467544e+17,-8.761175647145781e+23,632.011257506433,7.600193074341297e+22
3.0957856358822638e-06,6.183205141126988e+17,-8.947724574211145e+23,633.330893600967,7.725819866570357e+22
3.1157856358822636e-06,6.416568258249362e+17,-9.134876616274922e+23,634.6451712553489,7.851256168949996e+22
3.1357856358822634e-06,6.655151031879588e+17,-9.32264438837897e+23,635.954164684272,7.976519300135765e+22
3.155785635882263e-06,6.898983482784511e+17,-9.511039134163544e+23,637.2579460616563,8.101624473763735e+22
3.175785635882263e-06,7.148095196429542e+17,-9.700070715499716e+23,638.5565856196281,8.226584861337656e+22
3.195785635882263e-06,7.40251526250188e+17,-9.889747635986337e+23,639.8501517398262,8.351411675460927e+22
3.2157856358822626e-06,7.662272215543763e+17,-1.0080077089587976e+24,641.1387110378779,8.476114266799927e+22
3.2357856358822624e-06,7.927393977105658e+17,-1.0271065026838272e+24,642.4223284417665,8.600700229288912e+22
3.2557856358822622e-06,8.197907799700355e+17,-1.0462716232208065e+24,643.7010672647177,8.725175509156265e+22
3.275785635882262e-06,8.473840212733996e+17,-1.0655034407383687e+24,644.9749892731479,8.849544514333736e+22
3.295785635882262e-06,8.755216970507519e+17,-1.0848022256278248e+24,646.244154750149,8.973810221687093e+22
3.3157856358822616e-06,9.04206300231967e+17,-1.1041681568576315e+24,647.5086225549232,9.097974280263146e+22
3.3357856358822615e-06,9.334402364658204e+17,-1.1236013299475684e+24,648.7684501785355,9.222037109386681e+22
3.3557856358822613e-06,9.632258195436357e+17,-1.1431017644027728e+24,650.023693796307,9.345997990960113e+22
3.375785635882261e-06,9.935652670214612e+17,-1.162669410509158e+24,651.2744083171344,9.469855155729156e+22
3.395785635882261e-06,1.0244606960340579e+18,-1.1823041554411565e+24,652.520647429988,9.59360586358921e+22
3.4157856358822607e-06,1.0559141192940191e+18,-1.2020058286713612e+24,653.7624636478208,9.717246478233689e+22
3.4357856358822605e-06,1.0879274412699379e+18,-1.2217742067002657e+24,654.9999083490869,9.84077253659717e+22
3.4557856358822603e-06,1.1205024545385068e+18,-1.2416090171448154e+24,656.2330318170538,9.96417881364e+22
3.47578563588226e-06,1.1536408363066447e+18,-1.261509942237919e+24,657.4618832770757,1.008745938306693e+23
3.49578563588226e-06,1.187344145101066e+18,-1.2814766217986795e+24,658.6865109319712,1.0210607674580112e+23
3.5157856358822597e-06,1.221613817624057e+18,-1.3015086557366534e+24,659.9069619956433,1.0333616528251282e+23
3.5357856358822595e-06,1.2564511657755348e+18,-1.3216056061533352e+24,661.1232827250635,1.0456478246560377e+23
3.5557856358822593e-06,1.2918573738426752e+18,-1.3417669991017226e+24,662.3355184507284,1.057918464460053e+23
3.575785635882259e-06,1.3278334958595026e+18,-1.361992326060987e+24,663.5437136056952,1.0701727098895513e+23
3.595785635882259e-06,1.3643804531397768e+18,-1.3822810451781143e+24,664.7479117532804,1.0824096595217208e+23
3.6157856358822588e-06,1.4014990319873247e+18,-1.4026325823232435e+24,665.948155613515,1.0946283775735333e+23
3.6357856358822586e-06,1.4391898815886113e+18,-1.4230463319997179e+24,667.1444870884287,1.1068278985776617e+23
3.6557856358822584e-06,1.4774535120928515e+18,-1.4435216581445286e+24,668.3369472862347,1.1190072320419482e+23
