t(s),Adsorbed H on surface 1 (H m-2),solute flux surface 1 (H m-2 s-1),Total T surface 1 (K),0 value at [0] (H m-3)
1e-08,1321210.705401276,-3189686066538.4497,300.07232432896694,507632140461161.3
2.05e-08,3594121.4902143823,-8813527407773.852,300.186024532902,829273575287372.8
3.1525e-08,6564966.969001921,-15888657298511.752,300.3349582598437,1028350373031012.9
4.3101250000000004e-08,10113329.173030272,-24050669845598.086,300.5169328113465,1164306818092460.8
5.5256312500000004e-08,14201493.941264387,-33144767568264.906,300.73120790260606,1270541235620773.5
6.801912812500001e-08,18844181.05037613,-43144629463789.26,300.9777537696424,1365510232353196.2
8.142008453125001e-08,24091417.447947167,-54105765759386.055,301.2569468881629,1459362591922968.5
9.549108875781251e-08,30019787.575801395,-66140530999432.73,301.56941853130905,1557800354478341.8
1.1026564319570314e-07,36729013.15193988,-79406645828643.1,301.91596854969396,1664267347468104.0
1.2577892535548832e-07,44342002.36963643,-94104227225229.05,302.2975107965198,1781159923778738.8
1.4206787162326273e-07,53007316.095400915,-110478425980272.83,302.71503530650074,1910485655780471.0
1.5917126520442587e-07,62903542.29872521,-128826152635691.97,303.1695798954959,2054222731094643.5
1.7712982846464716e-07,74245439.4050672,-149506282782901.47,303.6622072780428,2214525363295267.5
1.9598631988787953e-07,87291972.75746806,-172953347640858.56,304.19398550327503,2393856301304751.5
2.157856358822735e-07,102356576.870277,-199695164279708.2,304.7659704206582,2595090674609243.0
2.357856358822735e-07,119092968.14108297,-229123613038549.25,305.35542308294754,2812499478356798.5
2.557856358822735e-07,137484743.49717638,-261227173712427.28,305.95462901471694,3045015341903954.5
2.7578563588227355e-07,157679414.00065157,-296280223880917.2,306.5619314008104,3293640838304306.5
2.9578563588227357e-07,179836446.37013966,-334577037781134.5,307.1758787958523,3559422290443107.0
3.157856358822736e-07,204128046.83664328,-376433245205400.8,307.7951914926927,3843453590233802.5
3.357856358822736e-07,230739978.3692948,-422187290257983.4,308.418736158367,4146877142910028.0
3.5578563588227363e-07,259872406.95366925,-472201878711253.8,309.0455056774404,4470884029329622.0
3.7578563588227365e-07,291740775.982703,-526865413983131.94,309.6746027264372,4816714005291954.0
3.9578563588227367e-07,326576708.6755892,-586593423605837.2,310.3052261631422,5185655497959300.0
4.157856358822737e-07,364628938.5334662,-651829977622780.9,310.9366596032894,5579045623796725.0
4.357856358822737e-07,406164267.7327139,-723049099485977.4,311.56826173222044,5998270217485418.0
4.5578563588227373e-07,451468553.2162236,-800756169230469.9,312.19945801463746,6444763855999547.0
4.7578563588227375e-07,500847720.1153602,-885489318080670.9,312.8297335457711,6920009864429081.0
4.957856358822737e-07,554628802.0287912,-977820813192430.6,313.4586268448699,7425540293733136.0
5.157856358822737e-07,613161007.5974389,-1078358430924858.5,314.08572443427096,7962935863770956.0
5.357856358822738e-07,676816812.7443752,-1187746816839624.0,314.71065607910595,8533825867431324.0
5.557856358822738e-07,745993077.8916562,-1306668830517837.0,315.3330905869124,9139888033549572.0
5.757856358822738e-07,821112189.4207826,-1435846873248040.5,315.9527320851467,9782848347713272.0
5.957856358822738e-07,902623224.6080723,-1576044196658379.0,316.5693167092343,1.0464480831127148e+16
6.157856358822738e-07,991003139.2395868,-1728066190430241.8,317.18260964536404,1.1186607278522644e+16
6.357856358822739e-07,1086757977.091516,-1892761647331080.0,317.7924024814754,1.1951096956726182e+16
6.557856358822739e-07,1190424100.450365,-2071024003932381.8,318.39851082732247,1.2759866265978788e+16
6.757856358822739e-07,1302569440.8423166,-2263792555529197.5,319.0007721705366,1.3614878366464152e+16
6.957856358822739e-07,1423794769.1423137,-2472053643945161.5,319.5990439405555,1.4518142772779942e+16
7.157856358822739e-07,1554734984.2401705,-2696841817086112.0,320.19320175634977,1.54717149192834e+16
7.35785635882274e-07,1696060419.4530025,-2939240959293284.5,320.7831378372554,1.6477695699383256e+16
7.55785635882274e-07,1848478165.89002,-3200385391739636.5,321.3687595590361,1.753823098193542e+16
7.75785635882274e-07,2012733411.9968288,-3481460942306953.5,321.9499881396584,1.8655511107943384e+16
7.95785635882274e-07,2189610798.5314445,-3783705984575035.5,322.52675744125884,1.9831770370770604e+16
8.15785635882274e-07,2379935788.2528267,-4108412445744514.0,323.09901287647097,2.1069286483046164e+16
8.357856358822741e-07,2584576049.6344924,-4456926783499967.0,323.66671040871876,2.237038003339188e+16
8.557856358822741e-07,2804442853.9502563,-4830650931998247.0,324.2298156373162,2.37374139360227e+16
8.757856358822741e-07,3040492485.116011,-5231043217337092.0,324.7883029592731,2.5172792876175644e+16
8.957856358822741e-07,3293727661.710326,-5659619243019604.0,325.34215480062085,2.6678962754212612e+16
9.157856358822741e-07,3565198970.6370974,-6117952746080090.0,325.8913609108639,2.8258410131110428e+16
9.357856358822742e-07,3856006311.9352093,-6607676424675694.0,326.43591771485154,2.9913661677918824e+16
9.55785635882274e-07,4167300354.2829466,-7130482738076445.0,326.9758277169729,3.1647283631622572e+16
9.75785635882274e-07,4500284000.788061,-7688124680099420.0,327.5110989530909,3.3461881259680892e+16
9.957856358822741e-07,4856213864.698107,-8282416527137672.0,328.041744486109,3.536009833537115e+16
1.0157856358822741e-06,5236401754.709288,-8915234562023709.0,328.56778194146307,3.734461662589546e+16
1.0357856358822742e-06,5642216169.595433,-9588517775045684.0,329.08923307919235,3.941815539504802e+16
1.0557856358822742e-06,6075083801.921771,-1.030426854350146e+16,329.60612339956845,4.1583470922082216e+16
1.0757856358822742e-06,6536491050.650351,-1.1064553291228756e+16,330.11848177953715,4.384335603825021e+16
1.0957856358822742e-06,7027985542.485385,-1.1871503129593166e+16,330.6263401374854,4.620063968233089e+16
1.1157856358822742e-06,7551177661.847142,-1.2727314481448612e+16,331.1297331240725,4.865818647631202e+16
1.1357856358822743e-06,8107742089.402078,-1.3634249689604908e+16,331.62869783706236,5.121889632223136e+16
1.1557856358822743e-06,8699419349.114676,-1.4594637611349954e+16,332.1232735582769,5.388570402104403e+16
1.1757856358822743e-06,9328017363.822813,-1.5610874200577582e+16,332.613501510957,5.6661578914241784e+16
1.1957856358822743e-06,9995413019.373093,-1.668542307906354e+16,333.09942463595587,5.95495245488094e+16
1.2157856358822743e-06,10703553737.385788,-1.782081609842185e+16,333.58108738533053,6.25525783659845e+16
1.2357856358822744e-06,11454459056.750364,-1.901965389424955e+16,334.0585355320105,6.567381141415873e+16
1.2557856358822744e-06,12250222223.982128,-2.0284606433942436e+16,334.5318159943339,6.891632808614494e+16
1.2757856358822744e-06,13093011792.598598,-2.1618413559631124e+16,335.00097667434034,7.228326588093926e+16
1.2957856358822744e-06,13985073231.699997,-2.3023885527646116e+16,335.4660663087942,7.577779518998438e+16
1.3157856358822744e-06,14928730543.962667,-2.4503903545879444e+16,335.92713433199845,7.940311910787096e+16
1.3357856358822745e-06,15926387893.276701,-2.606142031036437e+16,336.38423074953187,8.31624732673185e+16
1.3557856358822745e-06,16980531242.279589,-2.7699460542339764e+16,336.83740602210537,8.70591256981937e+16
1.3757856358822745e-06,18093730000.056816,-2.9421121527018676e+16,337.28671095880225,9.109637671026651e+16
1.3957856358822745e-06,19268638680.297348,-3.122957365522002e+16,337.7321966190156,9.527755879932187e+16
1.4157856358822745e-06,20507998570.207615,-3.312806096896844e+16,338.1739142224547,9.960603657620587e+16
1.4357856358822746e-06,21814639410.501514,-3.5119901712108252e+16,338.61191506663477,1.0408520671831965e+17
1.4557856358822746e-06,23191481086.79609,-3.720848888691661e+16,339.04625045130825,1.0871849794302966e+17
1.4757856358822746e-06,24641535332.753716,-3.939729081764565e+16,339.4769716093406,1.1350937100243666e+17
1.4957856358822746e-06,26167907445.32058,-4.16898517218572e+16,339.90412964356034,1.1846131869888742e+17
1.5157856358822746e-06,27773798012.419506,-4.4089792290361816e+16,340.3277754691589,1.2357786592060565e+17
1.5357856358822747e-06,29462504653.461803,-4.660081027651092e+16,340.7479597612376,1.2886256969678954e+17
1.5557856358822747e-06,31237423773.048054,-4.922668109553142e+16,341.16473290713054,1.3431901927148774e+17
1.5757856358822747e-06,33102052328.232082,-5.197125843454053e+16,341.57814496316047,1.3995083619557016e+17
1.5957856358822747e-06,35059989609.7256,-5.4838474873821496e+16,341.98824561550884,1.4576167443609632e+17
1.6157856358822747e-06,37114939037.422775,-5.783234251988284e+16,342.3950841448992,1.5175522050235475e+17
1.6357856358822748e-06,39270709970.62533,-6.095695365077892e+16,342.79870939482134,1.579351935878756e+17
1.6557856358822748e-06,41531219533.34886,-6.421648137411335e+16,343.1991697430365,1.6430534572768755e+17
1.6757856358822748e-06,43900494455.0904,-6.7615180298102056e+16,343.5965130761261,1.708694619701128e+17
1.6957856358822748e-06,46382672927.43582,-7.115738721602467e+16,343.9907867668604,1.776313605623846e+17
1.7157856358822748e-06,48982006476.88362,-7.48475218043487e+16,344.382037654181,1.845948931493873e+17
1.7357856358822749e-06,51702861854.25877,-7.86900873347716e+16,344.77031202560323,1.9176394498482518e+17
1.7557856358822749e-06,54549722941.08702,-8.268967140038062e+16,345.1556556018606,1.9914243515413347e+17
1.775785635882275e-06,57527192673.29598,-8.685094665609763e+16,345.5381135236216,2.0673431680846067e+17
1.795785635882275e-06,60639994982.60523,-9.117867157353739e+16,345.91773034012533,2.1454357740906822e+17
1.815785635882275e-06,63892976755.96256,-9.567769121037605e+16,346.29454999959023,2.2257423898149997e+17
1.835785635882275e-06,67291109813.378716,-1.0035293799429427e+17,346.6686158412602,2.3083035837890538e+17
1.855785635882275e-06,70839492904.50697,-1.0520943252152944e+17,347.03997058896255,2.3931602755389232e+17
1.875785635882275e-06,74543353724.3087,-1.1025228437004656e+17,347.4086563460604,2.4803537383833597e+17
1.895785635882275e-06,78408050948.13968,-1.1548669292731061e+17,347.7747145916908,2.5699256023056355e+17
1.915785635882275e-06,82439076286.58575,-1.2091794823261856e+17,348.1381861781848,2.661917856893577e+17
1.935785635882275e-06,86642056560.3703,-1.265514318339322e+17,348.49911132957703,2.7563728543426038e+17
1.9557856358822747e-06,91022755795.64923,-1.3239261765912893e+17,348.85752964111447,2.8533333125164934e+17
1.9757856358822745e-06,95587077340.00287,-1.3844707290157077e+17,349.2134800796823,2.952842318061021e+17
1.9957856358822743e-06,100341065999.42719,-1.4472045891987974e+17,349.56700098507076,3.054943329565719e+17
2.015785635882274e-06,105290910196.62057,-1.5121853215178806e+17,349.9181300720109,3.159680180769285e+17
2.035785635882274e-06,110442944150.85506,-1.5794714504192106e+17,350.2669044329125,3.2670970838041856e+17
2.0557856358822737e-06,115803650079.71487,-1.6491224698335754e+17,350.6133605412419,3.3772386324764666e+17
2.0757856358822735e-06,121379660422.97821,-1.7211988527281184e+17,350.9575342554837,3.490149805576774e+17
2.0957856358822733e-06,127177760088.91148,-1.7957620607925046e+17,351.29946082362954,3.605875970218809e+17
2.115785635882273e-06,133204888723.23901,-1.8728745542577875e+17,351.6391748881465,3.7244628852017274e+17
2.135785635882273e-06,139468143001.04456,-1.9525998018460096e+17,351.97671049137733,3.845956704393095e+17
2.1557856358822728e-06,145974778941.8548,-2.0350022908486483e+17,352.3121010813295,3.970403980129211e+17
2.1757856358822726e-06,152732214248.1488,-2.1201475373319798e+17,352.6453795178128,4.097851666629802e+17
2.1957856358822724e-06,159748030667.53116,-2.2081020964673264e+17,352.976578078888,4.228347123424284e+17
2.215785635882272e-06,167029976378.80054,-2.2989335729841622e+17,353.30572846759117,4.361938118786748e+17
2.235785635882272e-06,174585968402.14032,-2.3927106317441325e+17,353.63286181890345,4.498672833177605e+17
2.255785635882272e-06,182424095033.65097,-2.4895030084338333e+17,353.95800870693324,4.6385998626889165e+17
2.2757856358822716e-06,190552618304.43976,-2.5893815203743824e+17,354.2811991522856,4.781768222491822e+17
2.2957856358822714e-06,198979976464.47693,-2.692418077445735e+17,354.6024626295917,4.928227350283578e+17
2.3157856358822712e-06,207714786491.42322,-2.7986856931237117e+17,354.9218280751751,5.078027109732646e+17
2.335785635882271e-06,216765846624.62778,-2.9082584956277306e+17,355.23932389483235,5.231217793919786e+17
2.355785635882271e-06,226142138924.4913,-3.0212117391772365e+17,355.55497797170716,5.3878501287736166e+17
2.3757856358822706e-06,235852831857.38412,-3.1376218153549344e+17,355.86881767424023,5.5479752764992045e+17
2.3957856358822705e-06,245907282906.3051,-3.2575662645748326e+17,356.1808698641767,5.7116448389982835e+17
2.4157856358822703e-06,256315041207.46216,-3.381123787653175e+17,356.4911609046144,5.878910861279647e+17
2.43578563588227e-06,267085850212.95145,-3.508374257480542e+17,356.79971666807967,6.049825834858771e+17
2.45578563588227e-06,278229650379.70825,-3.639398730793058e+17,357.10656254461503,6.224442701145423e+17
2.4757856358822697e-06,289756581884.8992,-3.774279460041215e+17,357.41172344986876,6.402814854818584e+17
2.4957856358822695e-06,301676987367.9208,-3.9130999053543245e+17,357.7152238331718,6.584996147187328e+17
2.5157856358822693e-06,314000924277.17194,-4.055846170835889e+17,358.01600489989073,6.770904202117029e+17
2.535785635882269e-06,326738674358.6111,-4.2026021261212864e+17,358.31439032166355,6.960579766427548e+17
2.555785635882269e-06,339900807432.2924,-4.353461560810716e+17,358.6107107557267,7.154092367220334e+17
2.5757856358822687e-06,353498128099.0909,-4.508509907229311e+17,358.9051105450767,7.351501447792573e+17
2.5957856358822685e-06,367541662356.26483,-4.6678323304212883e+17,359.19768576610954,7.552862879679955e+17
2.6157856358822683e-06,382042654035.30597,-4.8315148465131744e+17,359.48850986070926,7.758231632562415e+17
2.635785635882268e-06,397012564636.5045,-4.999644637534896e+17,359.77764311850393,7.967662659648915e+17
2.655785635882268e-06,412463074569.0631,-5.172310164837789e+17,360.06513720920617,8.181211210439969e+17
2.6757856358822678e-06,428406085070.50494,-5.34960121586463e+17,360.3510376900611,8.398932952954546e+17
2.6957856358822676e-06,444853720498.06866,-5.5316089258303565e+17,360.6353855347147,8.620884025590244e+17
2.7157856358822674e-06,461818330845.255,-5.7184257894896646e+17,360.9182181332049,8.847121060295773e+17
2.735785635882267e-06,479312494406.55585,-5.910145669097514e+17,361.1995699819127,9.0777011932015e+17
2.755785635882267e-06,497349020547.0668,-6.10686380115245e+17,361.4794731800954,9.312682069554845e+17
2.775785635882267e-06,515940952551.2312,-6.308676803038593e+17,361.75795779965193,9.552121846056453e+17
2.7957856358822666e-06,535101570534.69116,-6.515682680032228e+17,362.03505216839363,9.796079192053984e+17
2.8157856358822664e-06,554844394408.8853,-6.72798083284394e+17,362.31078309228803,1.0044613290292547e+18
2.8357856358822662e-06,575183186891.4817,-6.945672065734158e+17,362.58517603341045,1.0297783837557427e+18
2.855785635882266e-06,596131956557.9034,-7.168858595179987e+17,362.8582552549518,1.0555651045364353e+18
2.875785635882266e-06,617704960930.6163,-7.397644059048961e+17,363.1300439412054,1.081827564076458e+18
2.8957856358822657e-06,639916709603.7997,-7.632133526228017e+17,363.40056429819094,1.1085718867287227e+18
2.9157856358822655e-06,662781967401.6648,-7.872433506657129e+17,363.66983763904767,1.1358042486019611e+18
2.9357856358822653e-06,686315757569.1488,-8.118651961721914e+17,363.93788445727114,1.1635308776817774e+18
2.955785635882265e-06,710533364994.0338,-8.370898314964178e+17,364.2047244901185,1.1917580539634225e+18
2.975785635882265e-06,735450339459.7852,-8.629283463075195e+17,364.47037677396827,1.2204921095950364e+18
2.9957856358822647e-06,761082498928.5784,-8.893919787141531e+17,364.7348596930256,1.2497394290300477e+18
3.0157856358822645e-06,787445932854.1179,-9.164921164117466e+17,364.99819102246886,1.2795064491876334e+18
3.0357856358822643e-06,814557005523.9568,-9.442402978502107e+17,365.26038796691245,1.309799659620217e+18
3.055785635882264e-06,842432359431.1014,-9.726482134202388e+17,365.5214671948893,1.3406256026871168e+18
3.075785635882264e-06,871088918674.7515,-1.0017277066565983e+18,365.7814448699259,1.3719908737335823e+18
3.0957856358822638e-06,900543892390.0717,-1.0314907754570719e+18,366.04033667868123,1.4039021212746258e+18
3.1157856358822636e-06,930814778206.9335,-1.0619495733158564e+18,366.29815785653653,1.4363660471830013e+18
3.1357856358822634e-06,961919365737.5942,-1.093116410570455e+18,366.55492321096244,1.4693894068809236e+18
3.155785635882263e-06,993875740093.3085,-1.125003755661169e+18,366.81064714293336,1.5029790095350833e+18
3.175785635882263e-06,1026702285429.8859,-1.157624236402483e+18,367.065343666621,1.537141718254616e+18
3.195785635882263e-06,1060417688522.2294,-1.1909906412656963e+18,367.3190264275623,1.5718844502917005e+18
3.2157856358822626e-06,1095040942367.8977,-1.2251159206722248e+18,367.5717087194677,1.6072141772445445e+18
3.2357856358822624e-06,1130591349819.7534,-1.260013188297151e+18,367.823403499817,1.6431379252625203e+18
3.2557856358822622e-06,1167088527247.7622,-1.295695722382523e+18,368.07412340436264,1.6796627752532288e+18
3.275785635882262e-06,1204552408230.021,-1.332176967060114e+18,368.3238807606523,1.7167958630913283e+18
3.295785635882262e-06,1243003247273.0981,-1.3694705336832796e+18,368.57268760066364,1.7545443798290007e+18
3.3157856358822616e-06,1282461623561.7764,-1.4075902021676347e+18,368.82055567263336,1.7929155719078684e+18
3.3357856358822615e-06,1322948444738.2908,-1.4465499223403366e+18,369.0674964521541,1.8319167413722813e+18
3.3557856358822613e-06,1364484950711.1638,-1.4863638152977167e+18,369.31352115260313,1.8715552460838536e+18
3.375785635882261e-06,1407092717493.7366,-1.5270461747710769e+18,369.55864073495883,1.911838499937136e+18
3.395785635882261e-06,1450793661072.506,-1.5686114685005266e+18,369.8028659170579,1.9527739730763948e+18
3.4157856358822607e-06,1495610041305.3738,-1.61107433961663e+18,370.04620718233514,1.9943691921133396e+18
3.4357856358822605e-06,1541564465849.9192,-1.6544496080298097e+18,370.2886747880897,2.0366317403458284e+18
3.4557856358822603e-06,1588679894121.811,-1.6987522718273462e+18,370.53027877331175,2.0795692579773944e+18
3.47578563588226e-06,1636979641283.471,-1.7439975086778632e+18,370.771028966103,2.1231894423376282e+18
3.49578563588226e-06,1686487382263.1062,-1.7902006772432287e+18,371.01093499072067,2.1675000481032776e+18
3.5157856358822597e-06,1737227155804.2327,-1.8373773185977874e+18,371.25000627427215,2.2125088875201188e+18
3.5357856358822595e-06,1789223368545.8022,-1.8855431576548142e+18,371.48825205308304,2.2582238306254623e+18
3.5557856358822593e-06,1842500799133.0618,-1.9347141046001728e+18,371.7256813787627,2.3046528054713242e+18
3.575785635882259e-06,1897084602359.2603,-1.9849062563330678e+18,371.9623031239854,2.3518037983482025e+18
3.595785635882259e-06,1953000313338.331,-2.036135897913914e+18,372.1981259880077,2.3996848540094413e+18
3.6157856358822588e-06,2010273851708.6685,-2.0884195040191542e+18,372.43315850193585,2.4483040758961157e+18
3.6357856358822586e-06,2068931525868.1274,-2.1417737404031142e+18,372.6674090337622,2.4976696263625073e+18
3.6557856358822584e-06,2129000037240.3684,-2.196215465366765e+18,372.9008857931818,2.547789726902001e+18
3.675785635882258e-06,2190506484572.6738,-2.2517617312333896e+18,373.13359683620376,2.598672658373533e+18
3.695785635882258e-06,2253478368265.3623,-2.3084297858311444e+18,373.3655500695692,2.650326761228456e+18
3.715785635882258e-06,2317943594732.928,-2.3662370739824364e+18,373.59675325498705,2.7027604357378847e+18
3.7357856358822576e-06,2383930480797.0317,-2.425201239000142e+18,373.8272140131969,2.7559821422204416e+18
3.7557856358822574e-06,2451467758111.4697,-2.485340124190612e+18,374.0569398278704,2.8100004012704297e+18
