t(s),Adsorbed H on surface 1 (H m-2),solute flux surface 1 (H m-2 s-1),Total T surface 1 (K),0 value at [0] (H m-3)
1e-10,179.19296481951284,-233527985456.80975,300.0141953913532,6895230845236.236
2.0500000000000002e-10,555.1006871085289,-504051838295.7833,300.02209121371277,13773089994085.93
3.1525e-10,1146.2433668001963,-812657672190.491,300.0287022965117,20624295673685.902
4.3101250000000007e-10,1972.3622158539529,-1160695410405.4407,300.03486241895973,27445494918785.41
5.525631250000001e-10,3054.5340554673066,-1549439180667.9353,300.04089917906697,34234806155563.03
6.801912812500001e-10,4415.296982399703,-1980078232083.998,300.0469943842595,40991760530734.086
8.142008453125001e-10,6078.791534813322,-2453713174715.747,300.0532735985364,47717302598826.37
9.549108875781252e-10,8070.9199746953445,-2971355647217.1567,300.05983836595004,54413798567553.336
1.1026564319570316e-09,10419.52583486725,-3533931077391.9663,300.06678082599126,61085035525726.69
1.2577892535548832e-09,13154.595740730882,-4142284537012.891,300.07419168854415,67736205363158.62
1.4206787162326274e-09,16308.485504780378,-4797189769052.494,300.08216540729353,74373871283194.95
1.591712652044259e-09,19916.172560715626,-5499361469782.483,300.09080414581007,81005917143428.3
1.7712982846464719e-09,24015.536956498538,-6249470893693.164,300.1002213035687,87641481547600.62
1.9598631988787956e-09,28647.67338529562,-7048164838290.412,300.110545032287,94290880048126.08
2.1578563588227356e-09,33857.23713687803,-7896088072721.243,300.1219220303352,100965520141637.45
2.3578563588227357e-09,39458.41268455383,-8759639048964.838,300.1340209073849,107432509250441.89
2.557856358822736e-09,45386.05836824865,-9628225557613.865,300.14678293278905,113656944615900.0
2.757856358822736e-09,51629.31922286177,-10500231871280.938,300.1602635725395,119666998803738.12
2.957856358822736e-09,58178.624494776515,-11374364967005.643,300.1745184006189,125486984508263.16
3.1578563588227363e-09,65025.52022756944,-12249602933990.766,300.1896037768641,131137958838312.47
3.3578563588227364e-09,72162.52831443342,-13125151993890.219,300.20557733513084,136638231870542.61
3.5578563588227366e-09,79583.02786379418,-14000410729759.014,300.2224983627832,142003794900065.72
3.757856358822737e-09,87281.15539579371,-14874940348507.395,300.24042811013595,147248681351337.5
3.957856358822737e-09,95251.72095069088,-15748439994890.5,300.2594300524552,152385271227501.62
4.157856358822737e-09,103490.13766306805,-16620726296915.912,300.2795701189377,157424548222417.72
4.357856358822737e-09,111992.36275254677,-17491716457957.932,300.3009168983094,162376317146855.88
4.557856358822737e-09,120754.84821474578,-18361414324123.668,300.3235418276832,167249388085180.6
4.757856358822737e-09,129774.49977577719,-19229898950151.54,300.3475193693545,172051732663731.97
4.9578563588227375e-09,139048.6429083503,-20097315266382.95,300.37292717888016,176790616945109.78
5.157856358822738e-09,148574.99490482826,-20963866515681.848,300.39984626686464,181472714736669.47
5.357856358822738e-09,158351.642168489,-21829808184717.184,300.4283611562214,186104204494000.53
5.557856358822738e-09,168377.0220239171,-22695443200558.426,300.45856003620804,190690852491848.16
5.757856358822738e-09,178649.90846521323,-23561118202549.625,300.4905349141827,195238084509791.94
5.957856358822738e-09,189169.4013601737,-24427220732181.992,300.5243817657721,199751047924559.2
6.157856358822738e-09,199934.91871280415,-25294177211216.207,300.5602006839423,204234665803834.88
6.3578563588227385e-09,210946.19165804415,-26162451601497.035,300.5980960273141,208693684348404.28
6.557856358822739e-09,222203.26192353998,-27032544659481.68,300.6381765679414,213132714822521.7
6.757856358822739e-09,233706.48154552016,-27904993715093.184,300.6805556386786,217556270939943.1
6.957856358822739e-09,245456.51467082914,-28780372918622.95,300.72535128018353,221968802529571.88
7.157856358822739e-09,257454.34131625004,-29659293911483.36,300.7726863875407,226374726185549.0
7.357856358822739e-09,269701.2629904912,-30542406887014.625,300.8226888564321,230778453508022.9
7.557856358822738e-09,282198.9101145608,-31430402016599.293,300.87549172874014,235184417459575.44
7.757856358822739e-09,294949.25120350876,-32324011224290.84,300.93123333742597,239597097295694.22
7.957856358822739e-09,307954.6037973668,-33224010300251.535,300.99005745048873,244021042473568.2
8.157856358822739e-09,321217.6471521766,-34131221349715.77,301.05211341378345,248460895900025.78
8.357856358822739e-09,334741.4367237879,-35046515580117.02,301.1175562924422,252921416845127.6
8.557856358822739e-09,348529.4204981212,-35970816434592.82,301.186547010619,257407503821554.25
8.75785635882274e-09,362585.45724225417,-36905103085448.63,301.25925248925205,261924217710499.06
8.95785635882274e-09,376913.83677141985,-37850414306444.516,301.3358457815153,266476805401487.4
9.15785635882274e-09,391519.3023481804,-38807852748079.94,301.41650620560796,271070724205798.75
9.35785635882274e-09,406407.0753520463,-39778589645510.07,301.50141947450913,275711667300466.9
9.55785635882274e-09,421582.88238102396,-40763869994440.62,301.5907778223067,280405590461869.1
9.75785635882274e-09,437052.98497137544,-41765018236422.68,301.68478012668726,285158740354446.06
9.95785635882274e-09,452824.21214867797,-42783444501533.586,301.7836320271598,289977684651024.4
1.015785635882274e-08,468903.9960524923,-43820651463589.336,301.887546038563,294869344276526.4
1.035785635882274e-08,485300.41090906574,-44878241870939.664,301.9967416593946,299841028086636.5
1.055785635882274e-08,502022.215662011,-45957926824676.555,302.1114454744819,304900470317439.9
1.075785635882274e-08,519078.9006103812,-47061534885914.66,302.231891251498,310055871171417.44
1.095785635882274e-08,536480.7384476453,-48191022104855.05,302.35832003081504,315315940939872.2
1.1157856358822741e-08,554238.840144466,-49348483076828.77,302.4909802081722,320689948102339.4
1.1357856358822741e-08,572365.216173712,-50536163144670.484,302.6301276096219,326187771890387.06
1.1557856358822741e-08,590872.8436387234,-51756471882868.55,302.7760255582096,331819959857181.3
1.1757856358822741e-08,609775.7399365596,-53011998017289.836,302.9289449318286,337597791056092.75
1.1957856358822741e-08,629089.0436680157,-54305525955247.21,303.0891642116852,343533345502485.1
1.2157856358822742e-08,648829.1035969973,-55640054124691.84,303.2569695207981,349639580673812.7
1.2357856358822742e-08,669013.5765650367,-57018815348870.625,303.43265465195356,355930415895644.3
1.2557856358822742e-08,689661.5353841889,-58445299514446.47,303.61652108452654,362420825566811.1
1.2757856358822742e-08,710793.5878654515,-59923278827549.96,303.80887798958014,369126942297414.25
1.2957856358822742e-08,732432.0082927517,-61456835994264.375,304.01004222264737,376066171171066.4
1.3157856358822742e-08,754600.88282739,-63050395710611.16,304.2203383036027,383257316499985.25
1.3357856358822742e-08,777326.2705280593,-64708759903269.72,304.44009838302736,390720722621310.0
1.3557856358822743e-08,800636.3819012105,-66437147227342.7,304.6696621944777,398478430488632.3
1.3757856358822743e-08,824561.7771602754,-68241237402980.195,304.90937699206853,406554352048139.06
1.3957856358822743e-08,849135.5866756196,-70127221060409.59,305.15959747278737,414974464658485.56
1.4157856358822743e-08,874393.7564464902,-72101855865016.56,305.42068568296645,423767028122842.94
1.4357856358822743e-08,900375.3218292284,-74172529813112.6,305.69301090834654,432962827256621.9
1.4557856358822743e-08,927122.7132215024,-76347332727901.05,305.9769495471773,442595443322307.9
1.4757856358822743e-08,954682.0979407339,-78635137147498.25,306.27288496581616,452701558131984.6
1.4957856358822742e-08,983103.7631585521,-81045689986894.16,306.5812073362987,463321295158144.25
1.515785635882274e-08,1012442.5454765166,-83589716578532.86,306.90231345537376,474498602615622.0
1.535785635882274e-08,1042758.3135686624,-86279038957771.73,307.23660654451845,486281684195137.0
1.5557856358822737e-08,1074116.5112938879,-89126710567038.81,307.58449603046506,498723483957377.7
1.5757856358822736e-08,1106588.7698198366,-92147169914693.03,307.9463973058014,511882232853904.6
1.5957856358822734e-08,1140253.5986281508,-95356416151703.97,308.32273146923006,525822065448390.25
1.6157856358822733e-08,1175197.166822556,-98772210033702.12,308.71392504510305,540613716693608.44
1.635785635882273e-08,1211514.1879762784,-102414304332563.14,309.120409681877,556335310104986.9
1.655785635882273e-08,1249308.9238815103,-106304708468374.97,309.5426218291705,573073250394367.6
1.6757856358822728e-08,1288696.3250578537,-110467992970888.36,309.9810023931394,590923235627595.6
1.6957856358822727e-08,1329803.3288066569,-114931640375328.4,310.4359963699251,609991406293326.4
1.7157856358822725e-08,1372770.3390447905,-119726450342014.53,310.9080524569703,630395651372721.9
1.7357856358822724e-08,1417752.916211401,-124887008200419.88,311.3976226420419,652267094644850.4
1.7557856358822722e-08,1464923.710330175,-130452227801804.61,311.90516176984227,675751788126150.9
1.775785635882272e-08,1514474.675966221,-136465981575721.72,312.4311270861405,701012643813146.4
1.795785635882272e-08,1566619.6145069536,-142977833091629.56,312.9759777594029,728231639880220.0
1.8157856358822718e-08,1621597.097119739,-150043890308904.72,313.54017437995356,757612343301653.9
1.8357856358822716e-08,1679673.8311351044,-157727801155619.75,314.12417843675075,789382797664019.9
1.8557856358822715e-08,1741148.543761155,-166101917228661.75,314.7284517719165,823798832881773.9
1.8757856358822713e-08,1806356.4702992889,-175248656401389.44,315.3534560132199,861147862826206.9
1.895785635882271e-08,1875674.5498212152,-185262101138056.28,315.99965198476485,901753247761922.6
1.915785635882271e-08,1949527.450086597,-196249876563837.2,316.6674990962031,945979311234123.2
1.935785635882271e-08,2028394.5659374425,-208335361090144.66,317.35745471084846,994237115991778.6
1.9557856358822707e-08,2112818.1622342323,-221660292970316.06,318.0699734931328,1046991121052282.8
1.9757856358822705e-08,2203412.86448746,-236387848955539.28,318.8055067359091,1104766862566880.6
1.9957856358822704e-08,2300876.738760646,-252706286717725.8,319.56450166817626,1168159825268194.5
2.0157856358822702e-08,2406004.2484765598,-270833261495162.38,320.3474007438576,1237845699601224.5
2.03578563588227e-08,2519701.4310212126,-291020950220690.25,321.1546409123429,1314592252898589.0
2.05578563588227e-08,2643003.703417042,-313562144094888.0,321.9866528715623,1399273082030892.5
2.0757856358822698e-08,2777096.7861390575,-338797504251406.06,322.84386030443477,1492883560868775.8
2.0957856358822696e-08,2923341.330178556,-367124216154421.94,323.72667909959864,1596559349838047.2
2.1157856358822695e-08,3083301.948118503,-399006328294575.1,324.6355165574016,1711597898246549.8
2.1357856358822693e-08,3258781.489398442,-434987121600881.6,325.5707705821957,1839483444568737.2
2.1557856358822692e-08,3451861.568121588,-475703930202272.9,326.53282886204653,1981916107433975.0
2.175785635882269e-08,3664950.5547694555,-521905924743520.9,327.52206803704115,2140845762951817.5
2.195785635882269e-08,3900840.4884155826,-574475480049024.9,328.5388528574367,2318511524881245.5
2.2157856358822687e-08,4162774.662421349,-634453884020489.0,329.58353533296065,2517487786116900.0
2.2357856358822686e-08,4454527.995016456,-703072309743147.6,330.6564538746388,2740737946645665.5
2.2557856358822684e-08,4780502.729793119,-781789174580476.2,331.7579324305863,2991677148738088.0
2.2757856358822683e-08,5145842.535959823,-872335256778741.5,332.88827961725667,3274245569582108.0
2.295785635882268e-08,5556568.713583809,-976768241824660.6,334.0477878477111,3592994090527170.5
2.315785635882268e-08,6019742.978477513,-1097538739765717.9,335.23673245850847,3953184477164793.0
2.3357856358822678e-08,6543662.233279248,-1237570265874617.5,336.4553708368937,4360906573230120.5
2.3557856358822677e-08,7138091.860034537,-1400356228643161.5,337.703941549989,4823215442521766.0
2.3757856358822675e-08,7814545.4367769845,-1590077643309227.8,338.9826634777606,5348291896766793.0
2.3957856358822674e-08,8586620.436442276,-1811746112904540.2,340.2917349515664,5945630435126166.0
2.4157856358822672e-08,9470401.471486706,-2071377624859817.2,341.6313329001331,6626259306000391.0
2.435785635882267e-08,10484945.074780561,-2376203939117073.5,343.00161200485536,7402998198924376.0
2.455785635882267e-08,11652862.944474554,-2734929841338773.5,344.40270386633614,8290760000595724.0
2.4757856358822667e-08,13001024.13301478,-3158046359898942.0,345.83471618411943,9306904123603514.0
2.4957856358822666e-08,14561400.954713259,-3658212267356270.5,347.2977319515945,1.0471650160711868e+16
2.5157856358822664e-08,16372088.573549345,-4250718889416419.0,348.7918086680726,1.1808562055624134e+16
2.5357856358822663e-08,18478534.493865572,-4954056526778491.0,350.3169775700411,1.3345114639690174e+16
2.555785635882266e-08,20935021.72665181,-5790604776813397.0,351.8732428836397,1.5113356292483732e+16
2.575785635882266e-08,23806458.49915586,-6787473864365487.0,353.4605811003731,1.7150683674839438e+16
2.595785635882266e-08,27170538.31912956,-7977529921979833.0,355.07894027810903,1.9500746990910036e+16
2.6157856358822657e-08,31120347.355968535,-9400644197714708.0,356.7282393693835,2.2214507098877532e+16
2.6357856358822655e-08,35767511.8823291,-1.110521464643278e+16,358.40836757904555,2.5351469048432576e+16
2.6557856358822654e-08,41245997.4284625,-1.3150018550793606e+16,360.1191837532374,2.8981120319421576e+16
2.6757856358822652e-08,47716693.91927924,-1.560646703875201e+16,361.86051580170556,3.318460621414694e+16
2.695785635882265e-08,55372948.06951622,-1.856134698316572e+16,363.6321601554024,3.805667956046851e+16
2.715785635882265e-08,64447236.49328835,-2.2120153209926044e+16,365.43388126130367,4.370796715865141e+16
2.7357856358822648e-08,75219211.25180668,-2.641113468880458e+16,367.2654111163388,5.026760129486981e+16
2.7557856358822646e-08,88025394.96538015,-3.1590202986980456e+16,369.1264488422775,5.788627118818667e+16
2.7757856358822645e-08,103270856.35280192,-3.784688035021912e+16,371.01666030337395,6.6739756470232904e+16
2.7957856358822643e-08,121443260.49831907,-4.541149903520429e+16,372.9356777685138,7.703301274446658e+16
2.8157856358822642e-08,143129762.82794088,-5.4563903716916776e+16,374.88309961953956,8.900488795083907e+16
2.835785635882264e-08,169037303.4376437,-6.5643955778090584e+16,376.8584901073758,1.0293355767386278e+17
2.855785635882264e-08,200016960.99015746,-7.90641929620229e+16,378.86137915749566,1.191427776611964e+17
2.8757856358822637e-08,237093145.02281827,-9.532506120197531e+16,380.8912622261886,1.3800906262714262e+17
2.8957856358822636e-08,281498544.5286373,-1.1503320844005982e+17,382.9476002090135,1.5996991183454346e+17
2.9157856358822634e-08,334715911.62472683,-1.3892341394761294e+17,385.0298194027261,1.8553321388015053e+17
2.9357856358822633e-08,398527944.7245727,-1.6788482208163405e+17,387.1373115218736,2.1528797541465613e+17
2.955785635882263e-08,475076748.75285256,-2.0299225753513917e+17,389.26943377115714,2.4991653102655827e+17
2.975785635882263e-08,566934593.5624696,-2.4554352084380586e+17,391.4255089745463,2.9020840397538586e+17
2.995785635882263e-08,677187968.8629419,-2.97103698919236e+17,393.60482576203,3.370759995844852e+17
3.015785635882263e-08,809537247.6496956,-3.5955767617897824e+17,395.80663881476863,3.915723245440535e+17
3.035785635882263e-08,968414623.2100747,-4.351721976008943e+17,398.03016916929346,4.5491093571190355e+17
3.0557856358822633e-08,1159123379.8960888,-5.266690154839993e+17,400.2746045812781,5.28488330742048e+17
3.0757856358822635e-08,1388001997.2127311,-6.373108460450822e+17,402.5390999492818,6.139089994558894e+17
3.095785635882264e-08,1662617072.0031703,-7.710020687406836e+17,404.8227777987258,7.130133586600169e+17
3.115785635882264e-08,1991989575.4474683,-9.32406318081578e+17,407.12472882624417,8.279087933995091e+17
3.135785635882264e-08,2386859540.0151243,-1.1270833414380852e+18,409.4440125043991,9.610040236398807e+17
3.155785635882264e-08,2859994894.8928823,-1.3616477225364408e+18,411.779657746623,1.1150470062603907e+18
3.1757856358822644e-08,3426550833.600087,-1.643952293363719e+18,414.1306636321053,1.2931665671352123e+18
3.1957856358822646e-08,4104486799.4174986,-1.9832992699639483e+18,416.4960001901979,1.498917936066309e+18
3.215785635882265e-08,4915048905.527467,-2.3906823415192284e+18,418.8746092437655,1.7363323274927398e+18
3.235785635882265e-08,5883326357.408195,-2.8790631069392195e+18,421.2654053107719,2.0099706713329848e+18
3.255785635882265e-08,7038891202.096894,-3.4636853770264407e+18,423.66727656324093,2.3249815501636864e+18
3.275785635882265e-08,8416531476.213219,-4.1624309295685883e+18,426.07908584257285,2.6871633404265503e+18
3.2957856358822655e-08,10057088542.339184,-4.99622030426905e+18,428.49967173008775,3.103030485836411e+18
3.3157856358822657e-08,12008410067.9301,-5.989462137650516e+18,430.92784967146656,3.5798837501484703e+18
3.335785635882266e-08,14326430684.92181,-7.170554347183365e+18,433.362413153679,4.1258842036631173e+18
3.355785635882266e-08,17076392840.19221,-8.572440160286895e+18,435.8021349327876,4.750130593282111e+18
3.375785635882266e-08,20334220671.784306,-1.02332215286125e+19,438.24576831092253,5.46273962987788e+18
3.3957856358822664e-08,24188059884.4701,-1.219683185247425e+19,440.69204846055123,6.274928599838899e+18
3.4157856358822666e-08,28739996508.857605,-1.4513769146805174e+19,443.1396937940504,7.199099570951218e+18
3.435785635882267e-08,34107967066.34695,-1.7241889792792912e+19,445.58740737645485,8.248924317740542e+18
3.455785635882267e-08,40427871981.72113,-2.0447261825408668e+19,448.03387837911936,9.4394289399604e+18
3.475785635882267e-08,47855903039.37653,-2.420507529728657e+19,450.47778357191623,1.07870769924808e+19
3.495785635882267e-08,56571094222.31836,-2.8600605629694788e+19,452.91778885146886,1.230984978829849e+19
3.5157856358822675e-08,66778103361.592285,-3.3730224013633393e+19,455.3525508028144,1.4027322382117951e+19
3.5357856358822676e-08,78710229618.4562,-3.970244686756049e+19,457.7807182917668,1.5960733593746639e+19
3.555785635882268e-08,92632668889.08334,-4.663901411031938e+19,460.20093408516,1.8133048292617523e+19
3.575785635882268e-08,108846005736.90173,-5.467598359507932e+19,462.611836496064,2.056901004163762e+19
3.595785635882268e-08,127689936406.17249,-6.396482650889341e+19,465.01206105095196,2.329518209504282e+19
3.6157856358822684e-08,149547212850.0684,-7.467350591957642e+19,467.40024217574205,2.6339974665960358e+19
3.6357856358822685e-08,174847792530.04248,-8.698751800408877e+19,469.77501489754667,2.973365632988466e+19
3.655785635882269e-08,204073173040.13098,-1.0111087288778649e+20,472.13501655890354,3.3508347415101833e+19
3.675785635882269e-08,237760884427.94278,-1.1726698953849297e+20,474.4788885412058,3.769799325481905e+19
3.695785635882269e-08,276509105491.2101,-1.3569947687835707e+20,476.80527799398044,4.233831524249413e+19
3.715785635882269e-08,320981363413.48584,-1.5667277129169017e+20,479.11283956666153,4.746673774518639e+19
3.7357856358822694e-08,371911268974.4842,-1.8047259911438326e+20,481.40023713942355,5.312228909239409e+19
3.7557856358822696e-08,430107232360.1948,-2.074062315884067e+20,483.66614554966355,5.934547507171898e+19
3.77578563588227e-08,496457097455.46643,-2.3780249924990888e+20,485.9092523106667,6.617812362853645e+19
3.79578563588227e-08,571932625595.5133,-2.7201153288410425e+20,488.1282593190181,7.366319978429215e+19
3.81578563588227e-08,657593753266.253,-3.104041991083163e+20,490.3218845473035,8.184459015534127e+19
3.83578563588227e-08,754592542371.9606,-3.533712004083836e+20,492.4888637186695,9.076685686833368e+19
3.8557856358822705e-08,864176736635.4246,-4.0132181210916035e+20,494.62795195983415,1.0047496112452084e+20
3.875785635882271e-08,987692833666.2435,-4.5468223234360384e+20,496.73792542916823,1.1101395715809962e+20
3.895785635882271e-08,1126588579429.7598,-5.138935256106151e+20,498.8175829165172,1.2242865785554903e+20
