t(s),Adsorbed H on surface 1 (H m-2),solute flux surface 1 (H m-2 s-1),Total T surface 1 (K),0 value at [0] (H m-3)
1e-08,1605420.631897618,-3977568564838.5137,301.44595274562016,595469310601190.1
2.05e-08,5033929.611697679,-13439421687770.672,303.7203024630237,1143266872362465.2
3.1525e-08,11042353.423727535,-31199830639346.684,306.7002160990223,1771613422550478.0
4.3101250000000004e-08,21481743.761224166,-64792215864345.66,310.3421343659426,2682422263556781.0
5.5256312500000004e-08,40396384.75047913,-131535280942756.94,314.6304637488684,4180160781664855.0
6.801912812500001e-08,76636648.97715491,-272370575744669.6,319.56554288923104,6806489422292922.0
8.142008453125001e-08,150142223.67561382,-588106245007514.2,325.155833441741,1.1604720603719936e+16
9.549108875781251e-08,307443351.0077208,-1337356852817447.2,331.41463528447224,2.066877227874344e+16
1.1026564319570314e-07,660957350.9941814,-3208983743069998.0,338.35871736930017,3.831620793626851e+16
1.2577892535548832e-07,1491173836.5301447,-8098896281187158.0,346.007254140382,7.364236363086472e+16
1.4206787162326273e-07,3518493303.7547464,-2.1369390983954616e+16,354.38108268423986,1.4616189532302163e+17
1.5917126520442587e-07,8640685918.8924,-5.851776599819996e+16,363.502147433289,2.984073973110616e+17
1.7712982846464716e-07,21965794344.605064,-1.6504369389552637e+17,373.39305544950906,6.242851173644636e+17
1.9598631988787953e-07,57484348787.84952,-4.758692945496909e+17,384.0766981320659,1.3331810864541317e+18
2.157856358822735e-07,154021812950.64584,-1.3927863113083697e+18,395.5759132291572,2.8950191624336773e+18
2.357856358822735e-07,400250254392.00287,-3.919057911418466e+18,407.43489588591916,6.162382282256954e+18
2.557856358822735e-07,1000420837183.294,-1.050837930226391e+19,419.4991906646744,1.2750832268448432e+19
2.7578563588227355e-07,2413010510132.084,-2.6930222957732303e+19,431.7359621476497,2.56553534791004e+19
2.9578563588227357e-07,5624143812716.655,-6.607135236058056e+19,444.1164035707002,5.020397804555125e+19
3.157856358822736e-07,12677447562810.047,-1.5541158545428814e+20,456.61508080737883,9.55759578758888e+19
3.357856358822736e-07,27657605999105.02,-3.510055354756488e+20,469.2094332662668,1.7710105891241892e+20
3.5578563588227363e-07,58448228058437.3,-7.624662188478212e+20,481.87937671089935,3.1962573554441735e+20
3.7578563588227365e-07,119761657586281.08,-1.595716864515212e+21,494.60697971091975,5.622824512925499e+20
3.9578563588227367e-07,238182928935655.7,-3.2231968363108756e+21,507.37619581004725,9.650354103157761e+20
4.157856358822737e-07,460291789751715.8,-6.294676307495363e+21,520.1726390309769,1.6173835334974327e+21
4.357856358822737e-07,865325824145217.6,-1.1905476693606309e+22,532.9833937513598,2.649550606671772e+21
4.5578563588227373e-07,1584302675592082.8,-2.184175738427118e+22,545.7968522594036,4.2463253212411677e+21
4.7578563588227375e-07,2827961132397617.5,-3.892245813509595e+22,558.6025748848715,6.663315064313413e+21
4.957856358822737e-07,4926141848652147.0,-6.74499360191675e+22,571.3911687444063,1.0244529631975377e+22
5.157856358822737e-07,8380952497177978.0,-1.1375754464547273e+23,584.1541819829347,1.5438552509824037e+22
5.357856358822738e-07,1.3934579082522886e+16,-1.8678784089709193e+23,596.884011025974,2.2807618525070734e+22
5.557856358822738e-07,2.2648859177481964e+16,-2.9853234045573704e+23,609.573818840618,3.301946306676481e+22
5.757856358822738e-07,3.598657259148946e+16,-4.6401037560924415e+23,622.2174625763456,4.680690063627014e+22
5.957856358822738e-07,5.5873846933159144e+16,-7.003200204050809e+23,634.8094292488779,6.487903469914888e+22
6.157856358822738e-07,8.471299637995064e+16,-1.024344937495548e+24,647.3447783611944,8.777972397346581e+22
6.357856358822739e-07,1.253152450809274e+17,-1.4492135614800677e+24,659.8190905400982,1.1572101356078927e+23
6.557856358822739e-07,1.8074460601539155e+17,-1.9806265436452023e+24,672.228421415073,1.4846252482666884e+23
6.757856358822739e-07,2.5410565740423542e+17,-2.6150048746291365e+24,684.5692600865686,1.8532123776502887e+23
6.957856358822739e-07,3.483422866243467e+17,-3.3409304013065967e+24,696.8384916292915,2.2533877660361138e+23
7.157856358822739e-07,4.66108070300387e+17,-4.1433762885956063e+24,709.0333631570986,2.6752965694181598e+23
7.35785635882274e-07,6.097208773336154e+17,-5.008375476813119e+24,721.1514530432436,3.110774152043688e+23
7.55785635882274e-07,7.811638754740835e+17,-5.92579963390863e+24,733.1906429456662,3.553934015486571e+23
7.75785635882274e-07,9.820807653522419e+17,-6.889585517958524e+24,745.1490923339314,4.000539258199444e+23
7.95785635882274e-07,1.2137358507614784e+18,-7.896335681536923e+24,757.0252152539341,4.4469384203831285e+23
8.15785635882274e-07,1.4769430211960865e+18,-8.943623258417653e+24,768.8176590999612,4.8892746866296164e+23
8.357856358822741e-07,1.7719890484077604e+18,-1.002880553996285e+25,780.5252851921704,5.323257492330633e+23
8.557856358822741e-07,2.0985807911395576e+18,-1.1148493665178067e+25,792.1471509818755,5.744438409936505e+23
8.757856358822741e-07,2.455839001283652e+18,-1.2298487496031487e+25,803.6824937279142,6.148797119037494e+23
8.957856358822741e-07,2.842349976468758e+18,-1.3473949150046946e+25,815.1307155053565,6.533443075064628e+23
9.157856358822741e-07,3.256273647949269e+18,-1.4669669314881174e+25,826.4913694233757,6.897274071672907e+23
9.357856358822742e-07,3.6954944678237466e+18,-1.5880351447944977e+25,837.7641469426032,7.241464611247647e+23
9.55785635882274e-07,4.157791472472542e+18,-1.7100871710433265e+25,848.9488661940522,7.569690225179227e+23
9.75785635882274e-07,4.640998310134701e+18,-1.8326483831159704e+25,860.0454612119639,7.88804104132019e+23
9.957856358822741e-07,5.143124432532758e+18,-1.955294664999367e+25,871.0539720019437,8.20463934104986e+23
1.0157856358822741e-06,5.662415212687327e+18,-2.077656500794085e+25,881.9745353736663,8.529039356671142e+23
1.0357856358822742e-06,6.197339876012422e+18,-2.199415052834297e+25,892.8073764744111,8.871535227310349e+23
1.0557856358822742e-06,6.746508902069033e+18,-2.320292324078701e+25,903.5528009658531,9.242519053611714e+23
1.0757856358822742e-06,7.308533636881254e+18,-2.440038402463196e+25,914.2111877920153,9.6520080769943e+23
1.0957856358822742e-06,7.881847613708412e+18,-2.5584189636331406e+25,924.7829824911313,1.0109402928056028e+24
1.1157856358822742e-06,8.464510482054975e+18,-2.675205715874116e+25,935.2686910085083,1.0623463349093283e+24
1.1357856358822743e-06,9.054012365579302e+18,-2.7901715578012953e+25,945.6688739713361,1.1202414067480159e+24
1.1557856358822743e-06,9.647091183497957e+18,-2.9030912438177496e+25,955.9841413898472,1.1854037179573921e+24
1.1757856358822743e-06,1.023957052751876e+19,-3.0137476612819415e+25,966.2151477523325,1.2585572290703852e+24
1.1957856358822743e-06,1.082622275195285e+19,-3.1219436369583246e+25,976.3625874843035,1.34032232958527e+24
1.2157856358822743e-06,1.1400661315654801e+19,-3.227519519908741e+25,986.4271907445946,1.4311048236536383e+24
1.2357856358822744e-06,1.195526794393897e+19,-3.3303773725130127e+25,996.4097195334673,1.530898436706756e+24
1.2557856358822744e-06,1.2481165856588505e+19,-3.4305127800285493e+25,1006.310964089817,1.6389768281210968e+24
1.2757856358822744e-06,1.2968267862091913e+19,-3.528053696954466e+25,1016.1317395564358,1.753465890857735e+24
1.2957856358822744e-06,1.3405470260804927e+19,-3.6232999819840294e+25,1025.8728828939595,1.8708382687092327e+24
1.3157856358822744e-06,1.3781129809388315e+19,-3.716744786709384e+25,1035.5352500256588,1.9854873203483705e+24
1.3357856358822745e-06,1.408399322438408e+19,-3.8090423014804577e+25,1045.1197131966105,2.0897071831647137e+24
1.3557856358822745e-06,1.4304608024374413e+19,-3.900883180556284e+25,1054.627158532057,2.1744910962947838e+24
1.3757856358822745e-06,1.4436852001809252e+19,-3.992779575284037e+25,1064.0584837809108,2.231292327167963e+24
1.3957856358822745e-06,1.4478851915508111e+19,-4.084844713977132e+25,1073.4145962314187,2.2542096473507904e+24
1.4157856358822745e-06,1.4432748169325455e+19,-4.176698960773564e+25,1082.6964107869549,2.2415244631320258e+24
1.4357856358822746e-06,1.4303513794521575e+19,-4.267566028410276e+25,1091.904848190811,2.195829125403722e+24
1.4557856358822746e-06,1.4097613430452242e+19,-4.356494441042306e+25,1101.0408333896455,2.1229104324463086e+24
1.4757856358822746e-06,1.3822169950540474e+19,-4.442581386198368e+25,1110.1052940260117,2.0301533422220444e+24
1.4957856358822746e-06,1.348477855703629e+19,-4.5251190162943016e+25,1119.0991590510625,1.9251317649650295e+24
1.5157856358822746e-06,1.3093692242850423e+19,-4.603652434978304e+25,1128.0233574491594,1.8146526843103228e+24
1.5357856358822747e-06,1.2658001524032258e+19,-4.677974630696974e+25,1136.8788170666996,1.7042391820970968e+24
1.5557856358822747e-06,1.2187564302222184e+19,-4.748086300800135e+25,1145.6664635380062,1.5979516181582444e+24
1.5757856358822747e-06,1.1692647868361748e+19,-4.814140309386828e+25,1154.3872193016239,1.4984477923299265e+24
1.5957856358822747e-06,1.1183396583396852e+19,-4.876384133820715e+25,1163.04200270082,1.407192900720301e+24
1.6157856358822747e-06,1.0669198711491168e+19,-4.93539399070322e+25,1171.640966434676,1.3247832842791614e+24
1.6357856358822748e-06,1.0158444867034653e+19,-4.991150066636932e+25,1180.1754274081775,1.251065666810451e+24
1.6557856358822748e-06,9.658145144268874e+18,-5.043936007268499e+25,1188.6463393743193,1.1855665269679032e+24
1.6757856358822748e-06,9.173824333798894e+18,-5.094008088695321e+25,1197.0546261845798,1.1275955175428439e+24
1.6957856358822748e-06,8.709553304184626e+18,-5.141587738207528e+25,1205.4011954080484,1.076372420535608e+24
1.7157856358822748e-06,8.268075190403774e+18,-5.186863054804981e+25,1213.6869421721372,1.0311088732052293e+24
1.7357856358822749e-06,7.850986283577782e+18,-5.229992782161694e+25,1221.912750478536,9.910560720694718e+23
1.7557856358822749e-06,7.458939492398985e+18,-5.271111058262208e+25,1230.079493664563,9.555295484666512e+23
1.775785635882275e-06,7.091846495198436e+18,-5.3103321991572435e+25,1238.1880345245174,9.239181177320804e+23
1.795785635882275e-06,6.749065481890424e+18,-5.347754602435261e+25,1246.2392252850498,8.956862999530096e+23
1.815785635882275e-06,6.429564573608068e+18,-5.383464333601999e+25,1254.2339075181071,8.703694864820349e+23
1.835785635882275e-06,6.132058522082261e+18,-5.417537806650214e+25,1262.1729120309265,8.475679415683834e+23
1.855785635882275e-06,5.855118425595236e+18,-5.450043918919538e+25,1270.057058752816,8.269396362071297e+23
1.875785635882275e-06,5.597256384427521e+18,-5.4810456872551595e+25,1277.887156628932,8.081930169472071e+23
1.895785635882275e-06,5.356988106034957e+18,-5.510601486909841e+25,1285.6640035263251,7.910801673529339e+23
1.915785635882275e-06,5.132876918708179e+18,-5.538765981486441e+25,1293.388386154886,7.753905795219473e+23
1.935785635882275e-06,4.923562683388683e+18,-5.565590816346805e+25,1301.061080004263,7.609456148698091e+23
1.9557856358822747e-06,4.727778868052662e+18,-5.591125132879262e+25,1308.6828492970105,7.475936567084455e+23
1.9757856358822745e-06,4.544360681637433e+18,-5.615415948142578e+25,1316.254446957671,7.352059170406697e+23
1.9957856358822743e-06,4.372246733033376e+18,-5.638508433978987e+25,1323.7766145972487,7.236728410576705e+23
2.015785635882274e-06,4.2104762373501814e+18,-5.660446121511831e+25,1331.2500825123018,7.129010457881238e+23
2.035785635882274e-06,4.058183370102853e+18,-5.6812710506508845e+25,1338.6755696978526,7.028107287886156e+23
2.0557856358822737e-06,3.9145899905059794e+18,-5.701023879424886e+25,1346.0537838732275,6.933334856075685e+23
2.0757856358822735e-06,3.7789976284645903e+18,-5.719743964306638e+25,1353.3854215199522,6.844104792945565e+23
2.0957856358822733e-06,3.650779359858355e+18,-5.737469419911777e+25,1360.671167930842,6.759909105316684e+23
2.115785635882273e-06,3.5293719800745677e+18,-5.754237164323319e+25,1367.9116972694085,6.680307425190797e+23
2.135785635882273e-06,3.414268721806546e+18,-5.770082954667191e+25,1375.1076726388048,6.604916402578486e+23
2.1557856358822728e-06,3.305012643224227e+18,-5.785041416314359e+25,1382.2597461595046,6.533400891565913e+23
2.1757856358822726e-06,3.2011907291631124e+18,-5.799146068133433e+25,1389.3685590549603,6.465466628276309e+23
2.1957856358822724e-06,3.102428693350922e+18,-5.812429345495653e+25,1396.4347417445629,6.40085414455475e+23
2.215785635882272e-06,3.0083864368606705e+18,-5.824922622190828e+25,1403.4589139432053,6.339333701716302e+23
2.235785635882272e-06,2.918754100852576e+18,-5.836656232012269e+25,1410.4416847668367,6.280701064377362e+23
2.255785635882272e-06,2.833248645264e+18,-5.847659490476597e+25,1417.3836528434124,6.224773965291892e+23
2.2757856358822716e-06,2.751610885559532e+18,-5.857960716936367e+25,1424.285406428663,6.171389138476325e+23
2.2957856358822714e-06,2.6736029241099515e+18,-5.867587257200928e+25,1431.1475235262048,6.120399820095665e+23
2.3157856358822712e-06,2.5990059192348585e+18,-5.8765655066830584e+25,1437.9705720114391,6.071673635039931e+23
2.335785635882271e-06,2.527618142102988e+18,-5.884920934029775e+25,1444.7551097588453,6.025090802326444e+23
2.355785635882271e-06,2.4592532787329495e+18,-5.89267810515774e+25,1451.5016847721906,5.980542604888138e+23
2.3757856358822706e-06,2.393738940830234e+18,-5.899860707595615e+25,1458.2108353172875,5.937930079402959e+23
2.3957856358822705e-06,2.3309153549329244e+18,-5.906491575028276e+25,1464.883090056911,5.8971628899842875e+23
2.4157856358822703e-06,2.270634204267362e+18,-5.912592711937931e+25,1471.5189681875308,5.858158356140845e+23
2.43578563588227e-06,2.2127576018723174e+18,-5.918185318242766e+25,1478.1189795775433,5.8208406107261495e+23
2.45578563588227e-06,2.157157177015121e+18,-5.923289813841255e+25,1484.6836249067005,5.7851398678814896e+23
2.4757856358822697e-06,2.1037132597911588e+18,-5.9279258629791566e+25,1491.2133958064371,5.750991784437177e+23
2.4957856358822695e-06,2.0523141511638582e+18,-5.932112398366712e+25,1497.7087750008711,5.718336901041225e+23
2.5157856358822693e-06,2.00291426999392e+18,-5.935504344915711e+25,1504.1477673321854,5.686853372613506e+23
2.535785635882269e-06,1.9554239076294413e+18,-5.938244676856822e+25,1510.5369845015819,5.6565993127195855e+23
2.555785635882269e-06,1.9097363034228826e+18,-5.940467764625174e+25,1516.8832366254953,5.6276152108200254e+23
2.5757856358822687e-06,1.8657505744819594e+18,-5.942236767119685e+25,1523.189493048389,5.599885899147204e+23
2.5957856358822685e-06,1.8233743303044529e+18,-5.943594773505483e+25,1529.4577264390769,5.573384714531185e+23
2.6157856358822683e-06,1.7825231171233518e+18,-5.944575100137515e+25,1535.6894425008538,5.5480817194672255e+23
2.635785635882268e-06,1.7431193510350484e+18,-5.9452051853471954e+25,1541.8858757101889,5.523946344980864e+23
2.655785635882268e-06,1.7050913434889398e+18,-5.945508498312332e+25,1548.048082854254,5.5009484253201244e+23
2.6757856358822678e-06,1.6683725198690757e+18,-5.9455056203084585e+25,1554.1769947735952,5.479058642982757e+23
2.6957856358822676e-06,1.63290080825722e+18,-5.945214918550025e+25,1560.273447908786,5.458248724834986e+23
2.7157856358822674e-06,1.5986181558289572e+18,-5.944652995972663e+25,1566.338204932658,5.438491521378598e+23
2.735785635882267e-06,1.565470136836065e+18,-5.943835007492711e+25,1572.371968984457,5.419761026312709e+23
2.755785635882267e-06,1.5334056263567066e+18,-5.942774891665641e+25,1578.3753939126047,5.402032363664546e+23
2.775785635882267e-06,1.5023765223386696e+18,-5.94148554607585e+25,1584.3490919015362,5.3852817567258996e+23
2.7957856358822666e-06,1.4723375042506268e+18,-5.939978963794811e+25,1590.293639313657,5.3694864868152716e+23
2.8157856358822664e-06,1.443245820433223e+18,-5.938266342007109e+25,1596.209581272041,5.3546248466553414e+23
2.8357856358822662e-06,1.415061098655748e+18,-5.9363581701816744e+25,1602.0974353291272,5.340676091337781e+23
2.855785635882266e-06,1.3877451759307333e+18,-5.934264302850707e+25,1607.9576944556948,5.3276203887577e+23
2.875785635882266e-06,1.3612619446472438e+18,-5.931994020566017e+25,1613.7908295135485,5.3154387707140116e+23
2.8957856358822657e-06,1.3355772127592896e+18,-5.929556081610469e+25,1619.5972913287062,5.304113085426472e+23
2.9157856358822655e-06,1.3106585762335237e+18,-5.926958766364551e+25,1625.377512450362,5.293625951924958e+23
2.9357856358822653e-06,1.2864753022954406e+18,-5.924209915754559e+25,1631.1319086590497,5.283960716568585e+23
2.955785635882265e-06,1.2629982222614938e+18,-5.921316964871185e+25,1636.8608802720073,5.2751014118196606e+23
2.975785635882265e-06,1.24019963293393e+18,-5.918286972601001e+25,1642.5648132825786,5.267032717308059e+23
2.9957856358822647e-06,1.2180532056835154e+18,-5.915126647932423e+25,1648.2440803623638,5.259739923162941e+23
3.0157856358822645e-06,1.1965339024641518e+18,-5.911842373461133e+25,1653.8990417487446,5.253208895550232e+23
3.0357856358822643e-06,1.1756178981004552e+18,-5.908440226516267e+25,1659.530046035803,5.2474260443299546e+23
3.055785635882264e-06,1.155282508269682e+18,-5.904925998249391e+25,1665.1374308831948,5.242378292733815e+23
3.075785635882264e-06,1.1355061226670088e+18,-5.9013052109654825e+25,1670.7215236547624,5.238053048955247e+23
3.0957856358822638e-06,1.1162681429003634e+18,-5.897583133927076e+25,1676.2826419966161,5.234438179542152e+23
3.1157856358822636e-06,1.0975489247102058e+18,-5.893764797823372e+25,1681.821094362697,5.231521984482553e+23
3.1357856358822634e-06,1.0793297241519724e+18,-5.889855008065318e+25,1687.3371804945182,5.2292931738759815e+23
3.155785635882263e-06,1.0615926474158481e+18,-5.885858357042303e+25,1692.831191860676,5.2277408460872585e+23
3.175785635882263e-06,1.044320603990626e+18,-5.881779235456078e+25,1698.3034120609227,5.226854467284456e+23
3.195785635882263e-06,1.0274972629068736e+18,-5.877621842830228e+25,1703.7541171987896,5.2266238522673774e+23
3.2157856358822626e-06,1.0111070118195151e+18,-5.873390197280198e+25,1709.183576226245,5.227039146498991e+23
3.2357856358822624e-06,9.951349187121773e+17,-5.869088144616909e+25,1714.5920512633404,5.228090809257161e+23
3.2557856358822622e-06,9.795666960253117e+17,-5.86471936684775e+25,1719.9797978954118,5.22976959782975e+23
3.275785635882262e-06,9.643886670277176e+17,-5.8602873901305665e+25,1725.3470654500754,5.232066552681147e+23
3.295785635882262e-06,9.495877342668236e+17,-5.8557955922292475e+25,1730.694097255948,5.234972983523319e+23
3.3157856358822616e-06,9.351513499472325e+17,-5.851247209513902e+25,1736.0211308847977,5.238480456229105e+23
3.3357856358822615e-06,9.210674880997044e+17,-5.846645343543704e+25,1741.3283983786314,5.242580780529975e+23
3.3557856358822613e-06,9.073246184142358e+17,-5.841992967266119e+25,1746.6161264630375,5.2472659984447665e+23
3.375785635882261e-06,8.939116816212233e+17,-5.837292930862618e+25,1751.8845367479585,5.252528373389489e+23
3.395785635882261e-06,8.808180663140765e+17,-5.832547967267787e+25,1757.1338459169342,5.258360379922143e+23
3.4157856358822607e-06,8.680335871151443e+17,-5.827760697386024e+25,1762.364265905743,5.264754694079759e+23
3.4357856358822605e-06,8.555484640944887e+17,-5.822933635027758e+25,1767.5760040712914,5.27170418426818e+23
3.4557856358822603e-06,8.433533033581061e+17,-5.8180691915846895e+25,1772.769263351477,5.279201902667638e+23
3.47578563588226e-06,8.314390787285509e+17,-5.813169680462061e+25,1777.9442424167175,5.287241077120241e+23
3.49578563588226e-06,8.19797114446775e+17,-5.808237321284155e+25,1783.1011358137441,5.295815103467725e+23
3.5157856358822597e-06,8.084190688292847e+17,-5.803274243887795e+25,1788.2401341022098,5.3049175383100994e+23
3.5357856358822595e-06,7.972969188196186e+17,-5.798282492117447e+25,1793.361423984624,5.3145420921582655e+23
3.5557856358822593e-06,7.864229453776116e+17,-5.793264027434206e+25,1798.4651884300424,5.324682622955022e+23
3.575785635882259e-06,7.757897196539657e+17,-5.788220732350167e+25,1803.5516067919546,5.335333129941339e+23
3.595785635882259e-06,7.65390089901435e+17,-5.783154413698635e+25,1808.6208549207372,5.346487747846132e+23
