t(s),Adsorbed H on surface 1 (H m-2),solute flux surface 1 (H m-2 s-1),Total T surface 1 (K),0 value at [0] (H m-3)
1e-08,1464261.9575694422,-3583651925553.1626,300.7952830986882,552233025940838.44
2.05e-08,4283785.111279968,-10988792212400.69,302.0460853945194,980874104238183.9
3.1525e-08,8573444.245775845,-22535273446350.43,303.684715053626,1363530056366855.0
4.3101250000000004e-08,14794664.985722888,-39969565149538.48,305.68713753053964,1791374384446811.5
5.5256312500000004e-08,23873849.422511563,-66710076370097.69,308.04534451580497,2349231569050334.0
6.801912812500001e-08,37473595.104969695,-109064863390720.88,310.759169190936,3137946793619830.0
8.142008453125001e-08,58531375.59363666,-178710332864855.97,313.83294107835354,4301005733083475.0
9.549108875781251e-08,92304479.71211141,-297724638650350.6,317.27382321204254,6063272574776740.0
1.1026564319570314e-07,148404429.17987832,-508928926663476.44,321.08947820184073,8793390941623024.0
1.2577892535548832e-07,244848372.6869809,-897735071973550.4,325.29117444243775,1.3113895525231834e+16
1.4206787162326273e-07,416249684.3492868,-1638955079003857.2,329.89031772498,2.0094736080469028e+16
1.5917126520442587e-07,730706165.5391536,-3099184387426537.5,334.8986546865051,3.1604298693638636e+16
1.7712982846464716e-07,1325267506.552661,-6064523939223737.0,340.32824400474794,5.095370170446149e+16
1.9598631988787953e-07,2481700288.4042006,-1.22546041735033e+16,346.1912542381076,8.409133610208598e+16
2.157856358822735e-07,4790867985.794074,-2.5497303307444716e+16,352.49977434097923,1.4183723835943536e+17
2.357856358822735e-07,9213778965.362808,-5.265941134774745e+16,359.00338743257043,2.3870531868367072e+17
2.557856358822735e-07,17506384424.47638,-1.0696329058531667e+17,365.61718536439093,3.981586655355844e+17
2.7578563588227355e-07,32863729329.79538,-2.1361048059651402e+17,372.32302270386117,6.577002553021222e+17
2.9578563588227357e-07,60928900621.41624,-4.191447920721679e+17,379.104991145441,1.0751007956997115e+18
3.157856358822736e-07,111502481419.80719,-8.076068597412547e+17,385.94905493104324,1.7380284501712701e+18
3.357856358822736e-07,201318045415.55936,-1.527360993942888e+18,392.8427741575171,2.777506883506615e+18
3.5578563588227363e-07,358461907296.5483,-2.834550580436697e+18,399.77508469924277,4.386404153998198e+18
3.7578563588227365e-07,629277895812.3037,-5.161805383541901e+18,406.73611889467065,6.844392786720242e+18
3.9578563588227367e-07,1088953775027.5061,-9.224354135235676e+18,413.7170570346428,1.0551073918383796e+19
4.157856358822737e-07,1857457339670.5288,-1.61802314698687e+19,420.7100027951688,1.6069210505917841e+19
4.357856358822737e-07,3123100859567.2207,-2.786692886941077e+19,427.7078776593381,2.4180252809062916e+19
4.5578563588227373e-07,5176786550367.95,-4.714370388527808e+19,434.70433063484654,3.5954549621259874e+19
4.7578563588227375e-07,8460946230850.248,-7.837685234265683e+19,441.6936604518825,5.2838806516673044e+19
4.957856358822737e-07,13638353531292.57,-1.2811441960616367e+20,448.6707480575722,7.676343551046305e+19
5.157856358822737e-07,21687386025947.81,-2.0600755337050322e+20,455.63099768818574,1.1027261126564137e+20
5.357856358822738e-07,34031923368706.78,-3.260458889021082e+20,462.57028514929266,1.566795294929207e+20
5.557856358822738e-07,52715937408818.56,-5.081869291756064e+20,469.48491220011545,2.2024952720575827e+20
5.757856358822738e-07,80634904898943.77,-7.80470162086972e+20,476.3715661439295,3.0641327223916587e+20
5.957856358822738e-07,121838455014015.05,-1.1817176805461192e+21,483.2272838871336,4.2201188645317195e+20
6.157856358822738e-07,181921100792436.97,-1.7649322185759347e+21,490.04941985667983,5.7557528988551014e+20
6.357856358822739e-07,268520429436453.6,-2.6015099180050395e+21,496.83561726694575,7.776342477744945e+20
6.557856358822739e-07,391944638319578.44,-3.786387070265042e+21,503.5837823087576,1.0410654821863934e+21
6.757856358822739e-07,565953648631083.4,-5.444235112154378e+21,510.29206089951174,1.381467639945704e+21
6.957856358822739e-07,808719980737836.2,-7.736802761739092e+21,516.9588176875098,1.8175636893780245e+21
7.157856358822739e-07,1143996801624476.2,-1.0871473215563643e+22,523.5826170482146,2.371622164007943e+21
7.35785635882274e-07,1602520568376565.0,-1.5111050392875487e+22,530.1622058470981,3.069885188941298e+21
7.55785635882274e-07,2223673789986023.0,-2.078470094600838e+22,536.6964977745649,3.942984904283335e+21
7.75785635882274e-07,3057428619612021.0,-2.8299844234685113e+22,543.1845590842826,5.026321123352201e+21
7.95785635882274e-07,4166582909471422.5,-3.815458309915345e+22,549.6255955880323,6.360361173351157e+21
8.15785635882274e-07,5629285225661946.0,-5.094998395627666e+22,556.0189407786607,7.990807319166899e+21
8.357856358822741e-07,7541821938339687.0,-6.740112649328543e+22,562.364044968432,9.968557851483434e+21
8.557856358822741e-07,1.0021605451899598e+16,-8.83453411502882e+22,568.6604653435247,1.2349365685684258e+22
8.757856358822741e-07,1.3210255741507528e+16,-1.147454504485417e+23,574.9078568469696,1.5193075837976556e+22
8.957856358822741e-07,1.7276606624499584e+16,-1.4768518845455407e+23,581.1059638122837,1.8562306017097029e+22
9.157856358822741e-07,2.242000345257157e+16,-1.8837181773141674e+23,587.2604553240795,2.25222102500872e+22
9.357856358822742e-07,2.887157198528377e+16,-2.380665222459736e+23,593.3652064962686,2.713364598734543e+22
9.55785635882274e-07,3.689548435096381e+16,-2.980617004975658e+23,599.4200771197446,3.24522456791889e+22
9.75785635882274e-07,4.678855199018948e+16,-3.6960863665284075e+23,605.425120396319,3.85235504032913e+22
9.957856358822741e-07,5.8877950467901464e+16,-4.538317078092636e+23,611.3804500772646,4.537811398573698e+22
1.0157856358822741e-06,7.35168055512923e+16,-5.516313572706613e+23,617.2862281432041,5.30267539110704e+22
1.0357856358822742e-06,9.107760068068829e+16,-6.635874480131475e+23,623.1426599542141,6.145672179233567e+22
1.0557856358822742e-06,1.1194370772466826e+17,-7.898794445126984e+23,628.9499905218905,7.062970951553856e+22
1.0757856358822742e-06,1.3649973226501843e+17,-9.302416723534652e+23,634.7085010945804,8.048251096612213e+22
1.0957856358822742e-06,1.6512169809412195e+17,-1.0839686999408843e+24,640.4185059318573,9.093076952567665e+22
1.1157856358822742e-06,1.9816825190014563e+17,-1.2499770364438538e+24,646.0803492548121,1.0187559732679061e+23
1.1357856358822743e-06,2.3597395546642205e+17,-1.4269164087034117e+24,651.6944023744212,1.1321211427785228e+23
1.1557856358822743e-06,2.7884536800071386e+17,-1.6133125099810407e+24,657.2610609986407,1.2483846624384044e+23
1.1757856358822743e-06,3.270600240241157e+17,-1.807712286397053e+24,662.7807427154484,1.366635733857559e+23
1.1957856358822743e-06,3.808678724546243e+17,-2.008807074015091e+24,668.2538846463025,1.4861239618927304e+23
1.2157856358822743e-06,4.404943096913536e+17,-2.2155136019826402e+24,673.6809412627673,1.606280528290807e+23
1.2357856358822744e-06,5.0614378250571616e+17,-2.4270062845428943e+24,679.0623823580839,1.7267095703093975e+23
1.2557856358822744e-06,5.780030407325364e+17,-2.6427060112571203e+24,684.3986911650744,1.8471575930104104e+23
1.2757856358822744e-06,6.562434059672348e+17,-2.8622387192003053e+24,689.6903626117027,1.967471594649068e+23
1.2957856358822744e-06,7.410217734031927e+17,-3.085379685539432e+24,694.9379017057478,2.0875560659389828e+23
1.3157856358822744e-06,8.324803748697459e+17,-3.31199744070097e+24,700.141822040364,2.207336212949656e+23
1.3357856358822745e-06,9.307455410834452e+17,-3.5420065072631323e+24,705.3026444126253,2.3267311531778684e+23
1.3557856358822745e-06,1.0359257978398693e+18,-3.7753330095043537e+24,710.4208955475823,2.4456376876392485e+23
1.3757856358822745e-06,1.1481096368986627e+18,-4.0118931140523385e+24,715.4971069207704,2.5639232071021352e+23
1.3957856358822745e-06,1.2673632545590868e+18,-4.251581880918507e+24,720.5318136725076,2.681425416728123e+23
1.4157856358822745e-06,1.393728483721549e+18,-4.4942693075148137e+24,725.5255536077788,2.7979565655944032e+23
1.4357856358822746e-06,1.527221081459618e+18,-4.7398006246405964e+24,730.4788662758251,2.9133103368580944e+23
1.4557856358822746e-06,1.6678294839276746e+18,-4.987998679632682e+24,735.3922921240187,3.027270144081575e+23
1.4757856358822746e-06,1.8155141044952064e+18,-5.23866708274824e+24,740.2663717208864,3.1396180792890255e+23
1.4957856358822746e-06,1.9702072251862664e+18,-5.491593462058133e+24,745.1016450435401,3.2501440894919963e+23
1.5157856358822746e-06,2.1318135106182244e+18,-5.746552600044544e+24,749.8986508250589,3.3586551286804676e+23
1.5357856358822747e-06,2.3002111536202289e+18,-6.003309441501117e+24,754.657925957668,3.4649840889089813e+23
1.5557856358822747e-06,2.4752536403934684e+18,-6.261622034467012e+24,759.3800049478521,3.5689983096740826e+23
1.5757856358822747e-06,2.656772100013214e+18,-6.521244459327869e+24,764.0654194197948,3.6706074403414083e+23
1.5957856358822747e-06,2.844578179050211e+18,-6.781929763244098e+24,768.7146976637573,3.7697704114961285e+23
1.6157856358822747e-06,3.038467358566034e+18,-7.043432875298019e+24,773.3283642262783,3.8665012703413634e+23
1.6357856358822748e-06,3.2382226094121795e+18,-7.305513444906428e+24,777.9069395392467,3.960873656569485e+23
1.6557856358822748e-06,3.4436182642708055e+18,-7.567938526015528e+24,782.4509395851253,4.0530237374579046e+23
1.6757856358822748e-06,3.654423972590658e+18,-7.830485021964857e+24,786.9608755957676,4.143151480733044e+23
1.6957856358822748e-06,3.8704085984882744e+18,-8.09294180866242e+24,791.4372537824461,4.2315202162479765e+23
1.7157856358822748e-06,4.091343922346684e+18,-8.355111464498839e+24,795.880575094877,4.318454517442413e+23
1.7357856358822749e-06,4.317008014320644e+18,-8.616811551992363e+24,800.2913350071562,4.4043365154420444e+23
1.7557856358822749e-06,4.5471881618526095e+18,-8.877875416457705e+24,804.6700233287039,4.489600837151362e+23
1.775785635882275e-06,4.781683252795516e+18,-9.138152489154668e+24,809.0171240383619,4.574728428773373e+23
1.795785635882275e-06,5.020305539649982e+18,-9.397508104750284e+24,813.3331151400005,4.660239583430277e+23
1.815785635882275e-06,5.262881737309088e+18,-9.655822864010663e+24,817.618468538048,4.7466865323305755e+23
1.835785635882275e-06,5.509253434954194e+18,-9.91299159119904e+24,821.8736499314597,4.834645980651068e+23
1.855785635882275e-06,5.759276830697833e+18,-1.0168921950720521e+25,826.0991187247761,4.924711970590771e+23
1.875785635882275e-06,6.012821823619919e+18,-1.042353279842649e+25,830.2953279549793,5.0174894348341296e+23
1.895785635882275e-06,6.269770520553129e+18,-1.0676752349308742e+25,834.4627242329502,5.113588765242932e+23
1.915785635882275e-06,6.530015233847335e+18,-1.0928516339282092e+25,838.6017476984132,5.213621683201951e+23
1.935785635882275e-06,6.793456055489778e+18,-1.117876571419025e+25,842.712831987324,5.31819852382781e+23
1.9557856358822747e-06,7.059998108090386e+18,-1.1427445228970527e+25,846.7964042107343,5.427927259141725e+23
1.9757856358822745e-06,7.329548565425163e+18,-1.1674501385255068e+25,850.8528849442202,5.543414082895144e+23
1.9957856358822743e-06,7.602013536171896e+18,-1.1919880863281879e+25,854.8826882270181,5.6652656638083186e+23
2.015785635882274e-06,7.877294894388748e+18,-1.216352912621897e+25,858.8862215700892,5.79409293760671e+23
2.035785635882274e-06,8.155287127632273e+18,-1.2405389247438488e+25,862.863885972379,5.930516287799026e+23
2.0557856358822737e-06,8.435874258599424e+18,-1.264540097405604e+25,866.8160759445591,6.075171924887935e+23
2.0757856358822735e-06,8.718926879897843e+18,-1.2883500022712778e+25,870.7431795396311,6.228719248242937e+23
2.0957856358822733e-06,9.004299325156933e+18,-1.3119617591891195e+25,874.6455783897898,6.391848964865547e+23
2.115785635882273e-06,9.291826984094732e+18,-1.3353680066698588e+25,878.5236477489663,6.565291741619494e+23
2.135785635882273e-06,9.581323754905203e+18,-1.3585608886984521e+25,882.377756540564,6.749827177569498e+23
2.1557856358822728e-06,9.872579614534013e+18,-1.3815320548064702e+25,886.2082674098666,6.946292894673775e+23
2.1757856358822726e-06,1.0165358275660861e+19,-1.4042726705405476e+25,890.0155367806942,7.15559355055991e+23
2.1957856358822724e-06,1.0459394887530949e+19,-1.4267734360486003e+25,893.7999149158691,7.3787095672735e+23
2.215785635882272e-06,1.0754393724613888e+19,-1.4490246114938074e+25,897.5617459811003,7.616705333658866e+23
2.235785635882272e-06,1.1050025790248729e+19,-1.471016049440819e+25,901.301368111924,7.870736562607986e+23
2.255785635882272e-06,1.1345926239211244e+19,-1.4927372363290274e+25,905.0191134833676,8.14205634978705e+23
2.2757856358822716e-06,1.1641691490270476e+19,-1.5141773478127279e+25,908.7153083820045,8.432019263085082e+23
2.2957856358822714e-06,1.193687585376955e+19,-1.5353253263699794e+25,912.3902732801223,8.742082457624138e+23
2.3157856358822712e-06,1.2230987436777206e+19,-1.5561699945583198e+25,916.0443229117199,9.073802311459135e+23
2.335785635882271e-06,1.2523483007341285e+19,-1.5767002242015713e+25,919.6777663500859,9.428824345171963e+23
2.355785635882271e-06,1.2813761400873937e+19,-1.5969051913988106e+25,923.2909070867211,9.808863134980862e+23
2.3757856358822706e-06,1.310115494324329e+19,-1.6167747604969222e+25,926.8840431113906,1.0215667442071435e+24
2.3957856358822705e-06,1.3384918266558867e+19,-1.636300058020245e+25,930.4574669930989,1.065096373876621e+24
2.4157856358822703e-06,1.3664213846528571e+19,-1.6554743205386441e+25,934.0114659618008,1.111636862213172e+24
2.43578563588227e-06,1.393809367271365e+19,-1.6742941276622127e+25,937.5463219906865,1.1613257299716275e+24
2.45578563588227e-06,1.4205476810112694e+19,-1.6927611583092254e+25,941.0623118788602,1.2142571768947287e+24
2.4757856358822697e-06,1.4465123437633059e+19,-1.710884623230928e+25,944.5597073342864,1.2704549554892586e+24
2.4957856358822695e-06,1.4715607563025768e+19,-1.728684504087873e+25,948.0387750568553,1.3298354305899058e+24
2.5157856358822693e-06,1.4955271269921157e+19,-1.745968079819623e+25,951.4875995676091,1.3920044922456394e+24
2.535785635882269e-06,1.5182252730041117e+19,-1.762850921082172e+25,954.9097815661274,1.4565377740398726e+24
2.555785635882269e-06,1.5394500885320739e+19,-1.7794836780602269e+25,958.3090204601351,1.5227511210843477e+24
2.5757856358822687e-06,1.5589830552918026e+19,-1.7960022881332173e+25,961.686929722663,1.5896146405963659e+24
2.5957856358822685e-06,1.576604392308367e+19,-1.8125552566360437e+25,965.044581877592,1.65575086824151e+24
2.6157856358822683e-06,1.5921121974449406e+19,-1.8293032217760915e+25,968.3827959664332,1.7194770571189798e+24
2.635785635882268e-06,1.6053466814482223e+19,-1.846406128249389e+25,971.7022437945388,1.778923534924993e+24
2.655785635882268e-06,1.6162143645264286e+19,-1.8640024001013365e+25,975.0035007012383,1.8322281468957422e+24
2.6757856358822678e-06,1.624704922815885e+19,-1.8821860162709667e+25,978.287073642997,1.877770532045535e+24
2.6957856358822676e-06,1.6308944326312931e+19,-1.9009893628338882e+25,981.5534183142619,1.9143819779751865e+24
2.7157856358822674e-06,1.634933379074099e+19,-1.9203783394112047e+25,984.8029503443419,1.9414679436626374e+24
2.735785635882267e-06,1.6370234538604888e+19,-1.940261298606661e+25,988.0360530218273,1.9590141603831562e+24
2.755785635882267e-06,1.6373904530779902e+19,-1.960507931237921e+25,991.2530828528814,1.9674922381361265e+24
2.775785635882267e-06,1.6362601104243702e+19,-1.9809713974925838e+25,994.4543736999356,1.9677100694265247e+24
2.7957856358822666e-06,1.6338407588591059e+19,-2.001507702232172e+25,997.6402399518416,1.960655355590468e+24
2.8157856358822664e-06,1.630313529960577e+19,-2.0219890460438142e+25,1000.8109790107189,1.9473652421455168e+24
2.8357856358822662e-06,1.6258287654580371e+19,-2.042310671929373e+25,1003.966873282884,1.9288354310313225e+24
2.855785635882266e-06,1.6205066120936958e+19,-2.062392463320718e+25,1007.1081918009721,1.9059675745261557e+24
2.875785635882266e-06,1.6144399355051512e+19,-2.082177133816141e+25,1010.2351915659483,1.8795465848657263e+24
2.8957856358822657e-06,1.6076981977423905e+19,-2.101626685838057e+25,1013.3481186723753,1.850237959663545e+24
2.9157856358822655e-06,1.6003314654872791e+19,-2.1207183476197774e+25,1016.4472092632055,1.8185966501401485e+24
2.9357856358822653e-06,1.592374116792659e+19,-2.139440713530736e+25,1019.5326903485083,1.7850813667649728e+24
2.955785635882265e-06,1.5838480745394483e+19,-2.157790437510047e+25,1022.6047805141742,1.7500704448873828e+24
2.975785635882265e-06,1.5747655431845083e+19,-2.1757695861236205e+25,1025.6636905405871,1.713877086727793e+24
2.9957856358822647e-06,1.5651312985247338e+19,-2.193383623216715e+25,1028.7096239468299,1.6767629265346933e+24
3.0157856358822645e-06,1.5549446082432145e+19,-2.2106399377368557e+25,1031.7427774727057,1.6389495459242015e+24
3.0357856358822643e-06,1.5442008643947278e+19,-2.2275468098635247e+25,1034.763341508351,1.6006279347092986e+24
3.055785635882264e-06,1.5328930001535875e+19,-2.2441127166824452e+25,1037.7715004793217,1.5619660652951095e+24
3.075785635882264e-06,1.5210127490158131e+19,-2.2603458939762756e+25,1040.7674331935764,1.5231148094961393e+24
3.0957856358822638e-06,1.5085517888213017e+19,-2.2762540878970217e+25,1043.7513131556084,1.4842124298484054e+24
3.1157856358822636e-06,1.4955027972316522e+19,-2.291844445770563e+25,1046.7233088520766,1.44538785611614e+24
3.1357856358822634e-06,1.481860430601215e+19,-2.3071235077050653e+25,1049.683584012579,1.406762930336072e+24
3.155785635882263e-06,1.467622225139207e+19,-2.3220972698570317e+25,1052.6322978485957,1.368453779893334e+24
3.175785635882263e-06,1.4527894084629232e+19,-2.3367712965583517e+25,1055.569605273193,1.3305714616287454e+24
3.195785635882263e-06,1.4373676017009822e+19,-2.351150862670731e+25,1058.4956571036694,1.2932220111916064e+24
3.2157856358822626e-06,1.4213673878104662e+19,-2.365241110231074e+25,1061.4106002490146,1.2565060289930987e+24
3.2357856358822624e-06,1.404804721151381e+19,-2.3790472053672733e+25,1064.314577883795,1.2205179342001005e+24
3.2557856358822622e-06,1.3877011567254452e+19,-2.3925744831803437e+25,1067.2077296098616,1.1853450178307142e+24
3.275785635882262e-06,1.3700838844987918e+19,-2.4058285702295022e+25,1070.0901916070775,1.1510664220459611e+24
3.295785635882262e-06,1.3519855640685496e+19,-2.4188154766487344e+25,1072.9620967741332,1.1177521629495971e+24
3.3157856358822616e-06,1.3334439663649192e+19,-2.4315416527819414e+25,1075.8235748603608,1.0854622977126468e+24
3.3357856358822615e-06,1.3145014406292216e+19,-2.444014008383386e+25,1078.674752589372,1.054246314218386e+24
3.3557856358822613e-06,1.2952042351088611e+19,-2.4562398955932383e+25,1081.5157537752264,1.0241427945716264e+24
3.375785635882261e-06,1.2756017075557267e+19,-2.468227059725877e+25,1084.34669943178,9.951793754813117e+23
3.395785635882261e-06,1.255745465948793e+19,-2.4799835640969096e+25,1087.1677078757623,9.673730016920524e+23
3.4157856358822607e-06,1.2356884806643487e+19,-2.491517696468019e+25,1089.9788948241053,9.40730445925402e+23
3.4357856358822605e-06,1.2154842068750698e+19,-2.502837865144443e+25,1092.7803734859663,9.152490519927962e+23
3.4557856358822603e-06,1.195185750942599e+19,-2.5139524923960147e+25,1095.572254649852,8.90917647632585e+23
3.47578563588226e-06,1.1748451078588811e+19,-2.524869911864882e+25,1098.3546467662065,8.677175699887859e+23
3.49578563588226e-06,1.1545124893062396e+19,-2.5355982752051924e+25,1101.127656025806,8.456237485140257e+23
3.5157856358822597e-06,1.1342357544571025e+19,-2.546145471607587e+25,1103.8913864342405,8.246057960218488e+23
3.5357856358822595e-06,1.1140599488419592e+19,-2.556519062301892e+25,1106.6459398827694,8.04629067084166e+23
3.5557856358822593e-06,1.0940269508762997e+19,-2.5667262307523236e+25,1109.391416215786,7.856556525381031e+23
3.575785635882259e-06,1.0741752211416895e+19,-2.57677374815011e+25,1112.127913295127,7.67645288382305e+23
3.595785635882259e-06,1.0545396462802878e+19,-2.586667953000766e+25,1114.855527061417,7.505561659968627e+23
3.6157856358822588e-06,1.0351514672843583e+19,-2.596414743087384e+25,1117.5743515926574,7.343456379387729e+23
