t(s),Adsorbed H on surface 1 (H m-2),solute flux surface 1 (H m-2 s-1),Total T surface 1 (K),0 value at [0] (H m-3)
1e-06,378654996.3377816,-72022020572946.55,300.8495743608573,1426075677189057.2
2.05e-06,1610204468.4420714,-675167287248679.4,302.1857681958403,4269204151499949.0
3.1525e-06,3827335356.3534904,-1342959882658024.2,303.9362826150276,7003031205502847.0
4.310125e-06,7439184209.700527,-2221576816909321.5,306.07544979454025,1.0300469865677236e+16
5.52563125e-06,13203749121.302612,-3500561395450273.5,308.59472581732734,1.4717034379369618e+16
6.8019128125e-06,22477221170.920456,-5489057350269263.0,311.49394549983555,2.1023550819097004e+16
8.142008453125e-06,37718592108.51506,-8736879643061814.0,314.777749091654,3.044677779423683e+16
9.54910887578125e-06,63498344037.42958,-1.4265020939155282e+16,318.4538061435292,4.504465018592103e+16
1.1026564319570314e-05,108544707667.30014,-2.402588117495937e+16,322.53022337588226,6.836454573532522e+16
1.2577892535548829e-05,190007205958.72852,-4.185971521809915e+16,327.01912675518116,1.066698052144118e+17
1.4206787162326272e-05,342509094572.7921,-7.550021930370851e+16,331.93273919550955,1.712154634806987e+17
1.5917126520442588e-05,637773842927.5812,-1.4087078559924597e+17,337.28363273214444,2.8256279707519222e+17
1.771298284646472e-05,1227983028507.5537,-2.7142816375580614e+17,343.08471284246343,4.7883901996720166e+17
1.9598631988787957e-05,2443176718133.9707,-5.387556979728595e+17,349.34900186441195,8.316852161113871e+17
2.1578563588227356e-05,5013264346413.874,-1.0984593245926354e+18,356.0894348590086,1.477261222028878e+18
2.3657491767638723e-05,10580270366132.938,-2.293352976012732e+18,363.31866908183986,2.6768170118879457e+18
2.584036635602066e-05,22891688116494.4,-4.886876270013292e+18,371.0489027049555,4.935346252352513e+18
2.8132384673821694e-05,50599046716809.586,-1.059252026205963e+19,379.29169995913213,9.233807609922351e+18
3.053900390751278e-05,113848828584988.31,-2.32760738435608e+19,388.057821432347,1.7483375852357138e+19
3.306595410288842e-05,259803424741075.2,-5.167076312583992e+19,397.35705944339486,3.3404947542018937e+19
3.571925180803284e-05,599016771618446.5,-1.1544371417523754e+20,407.1980792908825,6.420652297549095e+19
3.850521439843448e-05,1389528413098568.2,-2.5841495501734173e+20,417.5882678500813,1.236665575524189e+20
4.143047511835621e-05,3225202655164298.0,-5.7578284707361554e+20,428.53359151747554,2.373229193941186e+20
4.4501998874274025e-05,7428316009193900.0,-1.263060444386303e+21,440.03846592556926,4.492842033471437e+20
4.772709881798773e-05,1.6748615153190014e+16,-2.676869031340818e+21,452.1056401912325,8.24621500227312e+20
5.111345375888712e-05,3.626706838323927e+16,-5.338076278945918e+21,464.7360987288298,1.4319045169211897e+21
5.4669126446831475e-05,7.40489895480893e+16,-9.790763068511515e+21,477.9289838535034,2.304183115278333e+21
5.8402582769173055e-05,1.4143557402602694e+17,-1.6453961797999648e+22,491.6815425112299,3.4284716966273787e+21
6.232271190763171e-05,2.5380922342017194e+17,-2.571516249015849e+22,505.98910048581234,4.79185145481487e+21
6.64388475030133e-05,4.323004157104239e+17,-3.8112089726081904e+22,520.8450673305392,6.417959189655736e+21
7.076078987816397e-05,7.058297255794688e+17,-5.435397688966383e+22,536.2409750341288,8.359026534736292e+21
7.529882937207217e-05,1.112737440379051e+18,-7.526180124207068e+22,552.16655303803,1.0678661144574287e+22
8.006377084067578e-05,1.701171301685811e+18,-1.0172579933691094e+23,568.609841659531,1.3443393945949776e+22
8.506695938270958e-05,2.5270722778718843e+18,-1.3464505110328794e+23,585.5573452322323,1.6724018789959435e+22
9.032030735184505e-05,3.649475968558434e+18,-1.7482563564344243e+23,602.9942253497887,2.0630014469656956e+22
9.583632271943731e-05,5.125710106732769e+18,-2.2289008329247273e+23,620.9045334977504,2.5429581619614326e+22
0.00010162813885540918,7.011100178587818e+18,-2.792531413426254e+23,639.2714811010928,3.1839268400759545e+22
0.00010770954579817965,9.363452725644093e+18,-3.440742904639494e+23,658.0777436341766,4.173338908426384e+22
0.00011409502308808864,1.2239844531948624e+19,-4.1678652118072664e+23,677.3057939822755,6.0610616906734404e+22
0.00012079977424249307,1.5622777446973153e+19,-4.931858928563715e+23,696.9382587705456,1.117127311453263e+23
0.00012783976295461773,1.7879829576213393e+19,-5.6770203695596844e+23,716.958289961731,2.3589944762916107e+23
0.00013454451410902218,1.8065216523201706e+19,-6.677715486978306e+23,735.4991904400955,2.846271092614035e+23
0.00014158450282114683,1.7940801101491284e+19,-7.81255823116628e+23,754.4156483649962,2.8944462619473322e+23
0.00014897649096887771,1.7759965963541074e+19,-8.976330870774542e+23,773.6990233661927,2.8107067265224367e+23
0.00015673807852399516,1.7537952807503954e+19,-1.0168036541203999e+24,793.341210679521,2.6682588280484742e+23
0.00016488774545686847,1.7261188299558384e+19,-1.1391443966844946e+24,813.3352172447511,2.484190458922079e+23
0.00017344489573638546,1.6899255797000004e+19,-1.2645458942831514e+24,833.6755112677241,2.2599580218044885e+23
0.0001824299035298783,1.63877521226079e+19,-1.392611431311888e+24,854.358290665822,1.9887868278419946e+23
0.00019186416171304576,1.557718653458979e+19,-1.522766724294281e+24,875.3816964840427,1.6582232532712215e+23
0.00020177013280537161,1.4179425031481932e+19,-1.6538407646293732e+24,896.7459754114063,1.2810405248936961e+23
0.0002117701328053716,1.2274651564278174e+19,-1.7785496397674378e+24,917.6397947077987,9.765797708801826e+22
0.0002217701328053716,1.0404657248393146e+19,-1.8961087387426288e+24,937.9081957188981,7.92773558914538e+22
0.0002317701328053716,8.837689626175688e+18,-2.0078659937788892e+24,957.5957840973225,6.855974379091711e+22
0.0002417701328053716,7.579946727088373e+18,-2.1140951850151719e+24,976.743658313891,6.18719053126418e+22
0.00025177013280537164,6.569927044866739e+18,-2.213776355970985e+24,995.3410340399079,5.733862512506017e+22
0.00026177013280537166,5.752058543324745e+18,-2.303455696417967e+24,1013.2411544950351,5.400374033535386e+22
0.0002717701328053717,5.078932818203245e+18,-2.3865944691243067e+24,1030.6127316089717,5.145245567195595e+22
0.0002817701328053717,4.5172886373549947e+18,-2.464132245441773e+24,1047.5225237154311,4.94262694330462e+22
0.00029177013280537174,4.043330453131387e+18,-2.5365640969031706e+24,1064.0155130027513,4.7767737919752995e+22
0.00030177013280537177,3.639515860664338e+18,-2.604234288935106e+24,1080.126440710718,4.63766178905605e+22
0.0003117701328053718,3.292592776561752e+18,-2.667423109466284e+24,1095.8837943537653,4.518647037705286e+22
0.0003217701328053718,2.9923544810342205e+18,-2.7263792053363045e+24,1111.311721697183,4.415178355672875e+22
0.00033177013280537185,2.73081384569204e+18,-2.7813329773541673e+24,1126.431129539554,4.324052456733329e+22
0.00034177013280537187,2.501636001746071e+18,-2.8325024056208694e+24,1141.2603888291599,4.242963407616802e+22
0.0003517701328053719,2.2997377350400233e+18,-2.880095603444953e+24,1155.8158221413255,4.17021946272206e+22
0.0003617701328053719,2.1209982457264381e+18,-2.9243119013572427e+24,1170.1120587975695,4.104559192489737e+22
0.00037177013280537195,1.962046378811623e+18,-2.965342268768767e+24,1184.1623036642504,4.0450286975642094e+22
0.000381770132805372,1.8201015798947597e+18,-3.0033694501855435e+24,1197.978546611511,3.990897607126341e+22
0.000391770132805372,1.6928533367675832e+18,-3.038567994372129e+24,1211.5717294876654,3.941600387991513e+22
0.00040177013280537203,1.5783686580306875e+18,-3.071104259188317e+24,1224.951881683606,3.896694574031051e+22
0.00041177013280537206,1.4750202806657994e+18,-3.101136427499568e+24,1238.1282318645053,3.855830548869841e+22
0.0004217701328053721,1.3814304057351158e+18,-3.1288145461041857e+24,1251.1093012273222,3.8187293661287944e+22
0.0004317701328053721,1.2964262038300613e+18,-3.1542805884400323e+24,1263.902982178817,3.785166255018804e+22
0.00044177013280537213,1.219006354546158e+18,-3.1776685378539915e+24,1276.5166053309022,3.754958954644157e+22
0.00045177013280537216,1.1483041788707814e+18,-3.1991044833878545e+24,1288.9569970108203,3.7279552298734884e+22
0.0004617701328053722,1.0835775805194555e+18,-3.2187067285273606e+24,1301.2305289818007,3.7040302562139343e+22
0.0004717701328053722,1.0241813145936051e+18,-3.236585907728504e+24,1313.3431617021454,3.6830778745975556e+22
0.00048177013280537224,9.695538593424808e+17,-3.252845108494137e+24,1325.3004821765112,3.665006962203558e+22
0.0004917701328053723,9.192047852483945e+17,-3.267580002784551e+24,1337.1077372452717,3.6497379963940846e+22
0.0005017701328053723,8.727042603387414e+17,-3.2808789889854414e+24,1348.769862998095,3.6372003248536103e+22
0.0005117701328053723,8.296743159982313e+17,-3.292823348405711e+24,1360.2915108734521,3.62732999966508e+22
0.0005217701328053723,7.897815449130523e+17,-3.3034874205808813e+24,1371.6770709078116,3.6200680565554333e+22
0.0005317701328053724,7.527309697539744e+17,-3.3129388016020235e+24,1382.930692520311,3.6153591492419086e+22
0.0005417701328053724,7.182608736712604e+17,-3.32123856917673e+24,1394.0563031560575,3.6131504699698626e+22
0.0005517701328053724,6.861384246344388e+17,-3.3284415372192543e+24,1405.0576250604875,3.613390902815317e+22
0.0005617701328053724,6.561559578338203e+17,-3.334596541568021e+24,1415.9381904157485,3.6160303676940236e+22
0.0005717701328053725,6.281278058097133e+17,-3.3397467570614455e+24,1426.7013550360143,3.6210193214133124e+22
0.0005817701328053725,6.018875862219922e+17,-3.343930044785507e+24,1437.3503107903966,3.6283083883542563e+22
0.0005917701328053725,5.772858733739553e+17,-3.347179326947049e+24,1447.8880968986236,3.6378480980880985e+22
0.0006017701328053726,5.541881926404783e+17,-3.349522985612561e+24,1458.3176102249472,3.6495887108546815e+22
0.0006117701328053726,5.324732874939881e+17,-3.3509852805497846e+24,1468.6416146791444,3.6634801146820374e+22
0.0006217701328053726,5.120316173909344e+17,-3.35158678066038e+24,1478.8627498194473,3.6794717802341085e+22
0.0006317701328053726,4.9276405177713005e+17,-3.3513448030151256e+24,1488.983538740281,3.697512761397261e+22
0.0006417701328053727,4.7458073120501414e+17,-3.3502738532981913e+24,1499.0063953174888,3.717551731265746e+22
0.0006517701328053727,4.574000712744016e+17,-3.348386061516373e+24,1508.9336308749885,3.73953704463445e+22
0.0006617701328053727,4.411478890037672e+17,-3.3456916071035434e+24,1518.7674603292705,3.763416819400572e+22
0.0006717701328053727,4.2575663446478886e+17,-3.342199128012205e+24,1528.5100078616354,3.789139030442232e+22
0.0006817701328053728,4.1116471319119296e+17,-3.337916108991731e+24,1538.163312162448,3.8166516105996635e+22
0.0006917701328053728,3.973158871020949e+17,-3.3328492449635763e+24,1547.7293312867791,3.845902554340557e+22
0.0007017701328053728,3.8415874353957664e+17,-3.327004776176742e+24,1557.2099471565232,3.876840020552236e+22
0.0007117701328053728,3.7164622357453536e+17,-3.320388792625003e+24,1566.6069697403489,3.909412431671164e+22
0.0007217701328053729,3.5972545350996755e+17,-3.3130997982073505e+24,1575.9344073396653,3.94371545342434e+22
0.0007317701328053729,3.483676539385712e+17,-3.3050381063828273e+24,1585.1809273438882,3.979541472049815e+22
0.0007417701328053729,3.375362855662954e+17,-3.296215179193362e+24,1594.348461496158,4.016845678017957e+22
0.000751770132805373,3.27197836756005e+17,-3.2866406418386534e+24,1603.438651432919,4.055580178696353e+22
0.000761770132805373,3.1732147688243974e+17,-3.2763243644590384e+24,1612.453042921333,4.0956969675932175e+22
0.000771770132805373,3.078787986902143e+17,-3.265276903027145e+24,1621.3931141758746,4.137148394544682e+22
0.000781770132805373,2.988435966552036e+17,-3.253509699612793e+24,1630.260286229705,4.1798873541501755e+22
0.000791770132805373,2.901916694726321e+17,-3.241035192634847e+24,1639.0559285774461,4.223867388091333e+22
0.0008017701328053731,2.8190064252036355e+17,-3.227866876619137e+24,1647.7813630239023,4.269042748960067e+22
0.0008117701328053731,2.7394980774290835e+17,-3.2140193269787834e+24,1656.4378666750508,4.315368442323816e+22
0.0008217701328053731,2.6631997897900547e+17,-3.1995081979544656e+24,1665.0266744466667,4.362800254516169e+22
0.0008317701328053732,2.5899336107670678e+17,-3.184350198973459e+24,1673.5489812611904,4.411294770102754e+22
0.0008417701328053732,2.519534313583788e+17,-3.168563053424905e+24,1682.0059440275306,4.460809381542082e+22
0.0008517701328053732,2.4518483217968102e+17,-3.1521654430730666e+24,1690.3986834476561,4.5113022926329146e+22
0.0008617701328053732,2.3867327346369267e+17,-3.135176940975661e+24,1698.7282856891334,4.562732517117309e+22
0.0008717701328053733,2.3240544422252566e+17,-3.1176179353673727e+24,1706.9958039385613,4.615059873356204e+22
0.0008817701328053733,2.2636893218067197e+17,-3.099509546760685e+24,1715.2022598550582,4.668244975956279e+22
0.0008917701328053733,2.2055215071065098e+17,-3.08087354024907e+24,1723.3486449344807,4.7222492250263305e+22
0.0009017701328053733,2.1494427237450243e+17,-3.06173223477093e+24,1731.4359217911885,4.7770347936106146e+22
0.0009117701328053734,2.0953516843543133e+17,-3.042108410909183e+24,1739.4650253669854,4.832564613822021e+22
0.0009217701328053734,2.0431535376991776e+17,-3.022025218587518e+24,1747.436864072538,4.888802362074696e+22
0.0009317701328053734,1.992759366674776e+17,-3.0015060858446544e+24,1755.3523208667364,4.945712443763817e+22
0.0009417701328053734,1.9440857305685517e+17,-2.980574629686648e+24,1763.2122542773914,5.003259977658714e+22
0.0009517701328053735,1.897054247416305e+17,-2.9592545698715227e+24,1771.0174993697767,5.061410780279536e+22
0.0009617701328053735,1.851591212709997e+17,-2.9375696463052564e+24,1778.7688686640277,5.1201313504033856e+22
0.0009717701328053735,1.8076272510635523e+17,-2.915543540609885e+24,1786.4671530063404,5.179388853871206e+22
0.0009817701328053736,1.765096997778104e+17,-2.8931998022891993e+24,1794.1131223968678,5.2391511088046906e+22
0.0009917701328053736,1.7239388075453907e+17,-2.870561779801397e+24,1801.7075267762007,5.299386571299732e+22
0.0010017701328053736,1.6840944877887056e+17,-2.8476525567512315e+24,1809.2510967732794,5.360064321654467e+22
0.0010117701328053736,1.6455090543756083e+17,-2.8244948933304226e+24,1816.7445444188918,5.421154051194649e+22
0.0010217701328053737,1.608130507671673e+17,-2.801111173032255e+24,1824.1885638224535,5.4826260496343944e+22
0.0010317701328053737,1.5719096270663094e+17,-2.7775233546393905e+24,1831.5838318198994,5.5444511930681085e+22
0.0010417701328053737,1.536799782312484e+17,-2.7537529293831583e+24,1838.9310085891163,5.606600932487348e+22
0.0010517701328053737,1.5027567601511875e+17,-2.7298208831612466e+24,1846.2307382387196,5.669047282868275e+22
0.0010617701328053738,1.469738604855885e+17,-2.7057476636350414e+24,1853.4836493688078,5.731762812746515e+22
0.0010717701328053738,1.4377054714462227e+17,-2.681553152016557e+24,1860.6903556075124,5.794720634284057e+22
0.0010817701328053738,1.4066194904490091e+17,-2.657256639315145e+24,1867.8514561228747,5.857894393754813e+22
0.0010917701328053738,1.3764446431823523e+17,-2.63287680680702e+24,1874.9675361123407,5.92125826242478e+22
0.0011017701328053739,1.347146646637037e+17,-2.6084317104746323e+24,1882.039167271228,5.984786927786469e+22
0.001111770132805374,1.3186928471172755e+17,-2.5839387691536275e+24,1889.0669082408021,6.0484555850967216e+22
0.001121770132805374,1.2910521218797142e+17,-2.559414756123737e+24,1896.0513050371292,6.112239929178785e+22
0.001131770132805374,1.2641947880816483e+17,-2.534875793878468e+24,1902.9928914612244,6.1761161464401875e+22
0.001141770132805374,1.2380925184085805e+17,-2.510337351817815e+24,1909.8921894931218,6.240060907102084e+22
0.001151770132805374,1.212718262817143e+17,-2.4858142466034097e+24,1916.7497096689885,6.304051357572998e+22
0.001161770132805374,1.1880461758780062e+17,-2.4613206449283887e+24,1923.5659514418978,6.368065112932177e+22
0.001171770132805374,1.1640515492437026e+17,-2.436870068472175e+24,1930.341403530256,6.432080249556778e+22
0.001181770132805374,1.1407107488281803e+17,-2.412475400796293e+24,1937.0765442488298,6.496075297757226e+22
0.001191770132805374,1.1180011562977173e+17,-2.388148895982422e+24,1943.7718418297052,6.560029234528292e+22
0.0012017701328053741,1.0959011145335373e+17,-2.3639021887921743e+24,1950.4277547280603,6.6239214762861605e+22
0.0012117701328053742,1.0743898767377158e+17,-2.339746306167475e+24,1957.0447319177508,6.687731871662782e+22
0.0012217701328053742,1.0534475588972536e+17,-2.315691679883075e+24,1963.6232131742986,6.751440694286821e+22
0.0012317701328053742,1.0330550953397694e+17,-2.2917481601858284e+24,1970.163629346612,6.815028635557606e+22
0.0012417701328053742,1.0131941971351158e+17,-2.2679250302703675e+24,1976.666402620451,6.878476797456536e+22
0.0012517701328053743,9.93847313132186e+16,-2.2442310214353328e+24,1983.1319467688597,6.941766685285633e+22
0.0012617701328053743,9.749975934205267e+16,-2.2206743288005096e+24,1989.5606673954612,7.004880200441001e+22
0.0012717701328053743,9.566288550395194e+16,-2.1972626274562798e+24,1995.952962167666,7.067799633153391e+22
0.0012817701328053743,9.387255497649067e+16,-2.174003088938953e+24,2002.309221041871,7.1305076552315984e+22
0.0012917701328053744,9.212727338219966e+16,-2.1509023979286913e+24,2008.62982647954,7.192987312780991e+22
0.0013017701328053744,9.042560393831269e+16,-2.1279667690832483e+24,2014.9151536560669,7.255222018933931e+22
0.0013117701328053744,8.876616477222138e+16,-2.1052019639248274e+24,2021.1655706621464,7.317195546584956e+22
0.0013217701328053744,8.714762639101e+16,-2.0826133077060884e+24,2027.381438697172,7.378892021120396e+22
0.0013317701328053745,8.556870929393971e+16,-2.0602057061955004e+24,2033.5631122574337,7.440295913202376e+22
0.0013417701328053745,8.40281817185654e+16,-2.0379836623170892e+24,2039.7109393154033,7.5013920315297025e+22
0.0013517701328053745,8.252485751077674e+16,-2.0159512926030995e+24,2045.8252614948092,7.562165515679115e+22
0.0013617701328053745,8.105759411093482e+16,-1.9941123434082794e+24,2051.9064142379284,7.622601828952982e+22
0.0013717701328053746,7.96252906479307e+16,-1.9724702068546805e+24,2057.9547269689847,7.682686751321644e+22
0.0013817701328053746,7.822688613457566e+16,-1.9510279364677066e+24,2063.9705232501465,7.742406372388235e+22
0.0013917701328053746,7.68613577573884e+16,-1.9297882624812496e+24,2069.954120933396,7.801747084451367e+22
0.0014017701328053747,7.552771925491467e+16,-1.9087536067864462e+24,2075.905832307245,7.860695575647796e+22
0.0014117701328053747,7.422501937911573e+16,-1.8879260975039286e+24,2081.8259642376142,7.919238823164825e+22
0.0014217701328053747,7.295234043440672e+16,-1.8673075831676948e+24,2087.714818305241,7.977364086578547e+22
0.0014317701328053747,7.170879688978777e+16,-1.8468996465057798e+24,2093.572690938066,8.035058901288338e+22
0.0014417701328053748,7.049353405964246e+16,-1.826703617809158e+24,2099.399873538813,8.092311072056616e+22
0.0014517701328053748,6.930572684891116e+16,-1.8067205878849626e+24,2105.1966526095957,8.149108666698252e+22
0.0014617701328053748,6.814457855910136e+16,-1.7869514205869582e+24,2110.9633098714035,8.20544000987603e+22
0.0014717701328053748,6.700931975142856e+16,-1.7673967649237699e+24,2116.7001223800844,8.261293677041424e+22
0.0014817701328053749,6.589920716376482e+16,-1.7480570667455822e+24,2122.407362639357,8.31665848853575e+22
0.0014917701328053749,6.4813522678522536e+16,-1.7289325800087805e+24,2128.0852987091835,8.37152350381722e+22
0.001501770132805375,6.3751572338399976e+16,-1.7100233776249947e+24,2133.7341943117744,8.425878015867715e+22
0.001511770132805375,6.271268540752483e+16,-1.6913293618964417e+24,2139.3543089334003,8.479711545739647e+22
0.001521770132805375,6.169621347535542e+16,-1.6728502745454819e+24,2144.9458979236647,8.533013837282457e+22
0.001531770132805375,6.070152960109058e+16,-1.6545857063444546e+24,2150.5092125917135,8.585774852038203e+22
0.001541770132805375,5.972802749642185e+16,-1.6365351063529362e+24,2156.044500299365,8.637984764306907e+22
