t(s),Adsorbed H on surface 1 (H m-2),solute flux surface 1 (H m-2 s-1),Total T surface 1 (K),0 value at [0] (H m-3)
1e-08,1525485.0142266697,-3753895359462.7334,301.08446881581267,571074806477088.6
2.05e-08,4600520.169365835,-12013546678614.258,302.7901628848937,1049752953603283.6
3.1525e-08,9580141.73432945,-26009513268547.086,305.02485352863636,1530578942901176.0
4.3101250000000004e-08,17402839.39180516,-49401871042894.71,307.75581294594014,2140440570357437.0
5.5256312500000004e-08,29974748.044126447,-89749354094997.16,310.9721945219864,3030284399262845.0
6.801912812500001e-08,51013815.07639068,-162587163904206.9,314.6738588741677,4423746854034395.0
8.142008453125001e-08,87848483.0147649,-300645323873776.56,318.865338899203,6694613979843519.0
9.549108875781251e-08,155311252.1847702,-575249237025702.6,323.55733076556254,1.0507613862169034e+16
1.1026564319570314e-07,284326224.31402004,-1147102797378434.2,328.76256059911816,1.7083149321369692e+16
1.2577892535548832e-07,541292117.7399999,-2389850023614515.0,334.49522909895796,2.8712410090702296e+16
1.4206787162326273e-07,1072822250.6603235,-5197335143066764.0,340.77074311040116,4.977825856377274e+16
1.5917126520442587e-07,2211173657.812664,-1.1762063573537112e+16,347.60530959938444,8.880585751223536e+16
1.7712982846464716e-07,4727367484.133472,-2.7577812269157804e+16,355.01559974773164,1.6262747606177312e+17
1.9598631988787953e-07,10448865151.642572,-6.665146514019442e+16,363.01846185943265,3.04915442405888e+17
2.157856358822735e-07,23787498939.521454,-1.651726360021675e+17,371.63066468332613,5.837765325637271e+17
2.357856358822735e-07,53351327195.70176,-4.0076722539203565e+17,380.51056432091497,1.1071867004353146e+18
2.557856358822735e-07,116837891556.39796,-9.429241173446305e+17,389.5423517684042,2.0640692792103875e+18
2.7578563588227355e-07,250181414790.3232,-2.1533628020558234e+18,398.70133518321785,3.780709629115269e+18
2.9578563588227357e-07,523943198128.8735,-4.774356779972397e+18,407.9658604933234,6.800854326472529e+18
3.157856358822736e-07,1073137658880.938,-1.027879272944277e+19,417.3168166477717,1.201034007592902e+19
3.357856358822736e-07,2149543874946.3906,-2.149494362635262e+19,426.73725970158387,2.082024452831774e+19
3.5578563588227363e-07,4210925821332.593,-4.368350403341606e+19,436.21211373466303,3.542938321881594e+19
3.7578563588227365e-07,8069123543646.664,-8.633340719732875e+19,445.72792717647235,5.9191412865641595e+19
3.9578563588227367e-07,15129490813636.557,-1.6606255695295388e+20,455.27267102415595,9.711633335825811e+19
4.157856358822737e-07,27768335108512.633,-3.1116270497554806e+20,464.8355696364974,1.5654009026611606e+20
4.357856358822737e-07,49913595513887.51,-5.6851778531547886e+20,474.4069573637526,2.479994379755616e+20
4.5578563588227373e-07,87917569230183.4,-1.0138485716427004e+21,483.9781559866672,3.863511023673557e+20
4.7578563588227375e-07,151839508686974.38,-1.7664882500358064e+21,493.54136913193037,5.921743586009863e+20
4.957856358822737e-07,257290427947869.3,-3.010158529367115e+21,503.08959069041026,8.934933021193766e+20
5.157856358822737e-07,428031946634000.56,-5.021467960767141e+21,512.6165248974987,1.3278478595229252e+21
5.357856358822738e-07,699563893265829.9,-8.208046212533901e+21,522.1165162101225,1.9447283638877796e+21
5.557856358822738e-07,1123978337478473.0,-1.3158277565664857e+22,531.5844874773871,2.80836281306228e+21
5.757856358822738e-07,1776394303398024.2,-2.0704360047552798e+22,541.0158851819237,4.0008011665645665e+21
5.957856358822738e-07,2763306022386448.0,-3.1999648645651506e+22,550.4066307480805,5.625165097631907e+21
6.157856358822738e-07,4233158161500836.0,-4.860954339527839e+22,559.7530770862488,7.808806594260681e+21
6.357856358822739e-07,6389371203036421.0,-7.2611953854193605e+22,569.0519696807929,1.0705921474617527e+22
6.557856358822739e-07,9505829214694008.0,-1.0669781290159175e+23,578.3004116402866,1.4498871328825238e+22
6.757856358822739e-07,1.394444332713246e+16,-1.542534255143139e+23,587.4958322190334,1.9397074218252704e+22
6.957856358822739e-07,2.01737445402209e+16,-2.1939443823989338e+23,596.6359583926509,2.5631880715763314e+22
7.157856358822739e-07,2.878650016099284e+16,-3.069076696366392e+23,605.7187891312683,3.3445527297616465e+22
7.35785635882274e-07,4.051316742189288e+16,-4.22047746263994e+23,614.7425720642382,4.307241530105634e+22
7.55785635882274e-07,5.622691322191329e+16,-5.701419909209163e+23,623.7057822722365,5.4712154760952915e+22
7.75785635882274e-07,7.693558522878802e+16,-7.559945073446641e+23,632.6071029778253,6.849654046204071e+22
7.95785635882274e-07,1.0375730320178723e+17,-9.831591834970395e+23,641.4454079352118,8.44568280063078e+22
8.15785635882274e-07,1.378797781326756e+17,-1.253250863822654e+24,650.2197453450739,1.0250154093525974e+23
8.357856358822741e-07,1.8050859758088285e+17,-1.5655367968607666e+24,658.9293231417079,1.2241589293575056e+23
8.557856358822741e-07,2.3281438433802746e+17,-1.9170162518432673e+24,667.5734955180495,1.438885688419737e+23
8.757856358822741e-07,2.958901170682081e+17,-2.3030326810050557e+24,676.1517505698207,1.665610290150541e+23
8.957856358822741e-07,3.707264346128819e+17,-2.718236626450237e+24,684.6636989535945,1.900840251095936e+23
9.157856358822741e-07,4.582057959661855e+17,-3.157566667289594e+24,693.1090634652918,2.1416256625269736e+23
9.357856358822742e-07,5.591095928410919e+17,-3.6169370235266395e+24,701.487669455797,2.3857669689881674e+23
9.55785635882274e-07,6.74129073346559e+17,-4.0934888983477647e+24,709.7994360092571,2.6317696197273915e+23
9.75785635882274e-07,8.038721017109734e+17,-4.5854602970511034e+24,718.0443678173806,2.878631409401931e+23
9.957856358822741e-07,9.488616987543956e+17,-5.091846326506745e+24,726.2225476898664,3.125581918400385e+23
1.0157856358822741e-06,1.1095264848745453e+18,-5.612027804723981e+24,734.3341296470745,3.3718677924115847e+23
1.0357856358822742e-06,1.286185892552864e+18,-6.145480279723162e+24,742.3793325463405,3.616626974229402e+23
1.0557856358822742e-06,1.479033976505195e+18,-6.691597952397886e+24,750.3584341980095,3.8588519246892654e+23
1.0757856358822742e-06,1.6881253596671977e+18,-7.249615692057932e+24,758.2717659314155,4.097420065905118e+23
1.0957856358822742e-06,1.913366024497685e+18,-7.818594484065714e+24,766.1197075747226,4.3311661225481255e+23
1.1157856358822742e-06,2.154510754712713e+18,-8.397439751179566e+24,773.9026828158311,4.5589762569098225e+23
1.1357856358822743e-06,2.411168206311165e+18,-8.984933535894456e+24,781.6211549145004,4.7798901661391226e+23
1.1557856358822743e-06,2.6828138191563284e+18,-9.579771461547084e+24,789.2756227384618,4.99320131817856e+23
1.1757856358822743e-06,2.9688100259632046e+18,-1.0180600922036268e+25,796.8666170986703,5.1985472382756915e+23
1.1957856358822743e-06,3.2684324777452186e+18,-1.0786058897308213e+25,804.39469736096,5.395982492091745e+23
1.2157856358822743e-06,3.5809003421832934e+18,-1.1394807911607548e+25,811.8604483132893,5.586027926942404e+23
1.2357856358822744e-06,3.9054082299930465e+18,-1.2005568300174647e+25,819.2644772694919,5.76969144050504e+23
1.2557856358822744e-06,4.241191627380166e+18,-1.2618312116278908e+25,826.6148808059004,5.9489340415728935e+23
1.2757856358822744e-06,4.587483725147409e+18,-1.3230877739552804e+25,833.9046186353722,6.12519767333065e+23
1.2957856358822744e-06,4.943569675471072e+18,-1.384215122133195e+25,841.1342801502589,6.300741730891998e+23
1.3157856358822744e-06,5.308802073024978e+18,-1.4451251339966207e+25,848.3045514081434,6.478154564956576e+23
1.3357856358822745e-06,5.682605645389661e+18,-1.5057426783270647e+25,855.4161340077861,6.660229126577146e+23
1.3557856358822745e-06,6.064472653362134e+18,-1.5660026963537265e+25,862.4697377550823,6.84986809962062e+23
1.3757856358822745e-06,6.453949878161531e+18,-1.625848148542981e+25,869.4660783652538,7.05000436178245e+23
1.3957856358822745e-06,6.850618544330236e+18,-1.6852279323937242e+25,876.4058760154701,7.263541718430701e+23
1.4157856358822745e-06,7.254068932758053e+18,-1.7440948043633309e+25,883.2898541310772,7.493320765226485e+23
1.4357856358822746e-06,7.663871604197915e+18,-1.8024034743914413e+25,890.118738278821,7.742111664797097e+23
1.4557856358822746e-06,8.079547067641739e+18,-1.8601090250380668e+25,896.8932551368885,8.01263208854232e+23
1.4757856358822746e-06,8.500535437445335e+18,-1.917165756836873e+25,903.6141315339787,8.307585384656012e+23
1.4957856358822746e-06,8.926167207419809e+18,-1.973526505888063e+25,910.2820935547013,8.629711596060383e+23
1.5157856358822746e-06,9.355635817667285e+18,-2.0291424318884233e+25,916.8978657094187,8.981842387943428e+23
1.5357856358822747e-06,9.787972275295885e+18,-2.0839632433051646e+25,923.462170166483,9.366950076452639e+23
1.5557856358822747e-06,1.0222021754669154e+19,-2.13793781684139e+25,929.975726044466,9.788180328055143e+23
1.5757856358822747e-06,1.0656421843526486e+19,-2.1910151835459958e+25,936.4392487616958,1.0248857069824901e+24
1.5957856358822747e-06,1.1089581871331203e+19,-2.243145894652378e+25,942.8534494402529,1.075244594011326e+24
1.6157856358822747e-06,1.15196624811554e+19,-2.2942838463364372e+25,949.2190343615067,1.1302458391992052e+24
1.6357856358822748e-06,1.1944554224076163e+19,-2.3443887338832995e+25,955.5367044702673,1.19022715369541e+24
1.6557856358822748e-06,1.236185349411675e+19,-2.393429421054061e+25,961.8071549246675,1.255482838801082e+24
1.6757856358822748e-06,1.2768833841948148e+19,-2.441388641569054e+25,968.0310746889899,1.326216951137272e+24
1.6957856358822748e-06,1.3162411314458003e+19,-2.4882695646741327e+25,974.2091461667176,1.4024732703199193e+24
1.7157856358822748e-06,1.3539105373136146e+19,-2.5341047642433623e+25,980.3420448712318,1.4840350280648368e+24
1.7357856358822749e-06,1.3895004328995146e+19,-2.578967820001398e+25,986.4304391316917,1.5702893443490723e+24
1.7557856358822749e-06,1.4225758336748866e+19,-2.6229867622402547e+25,992.4749898317293,1.6600597243654167e+24
1.775785635882275e-06,1.452664345389442e+19,-2.6663563478309784e+25,998.4763501787988,1.7514299792309087e+24
1.795785635882275e-06,1.4792758539963259e+19,-2.709342589138513e+25,1004.4351655020018,1.841617301608004e+24
1.815785635882275e-06,1.5019410329569892e+19,-2.7522694402994408e+25,1010.3520730764787,1.9269910578203408e+24
1.835785635882275e-06,1.5202680652090937e+19,-2.7954781763052964e+25,1016.2277019724595,2.003342770067193e+24
1.855785635882275e-06,1.5340050191188144e+19,-2.839259927937934e+25,1022.0626729272417,2.066443117264555e+24
1.875785635882275e-06,1.5430843950475805e+19,-2.8837801869223177e+25,1027.857598238446,2.1127677537298216e+24
1.895785635882275e-06,1.5476280464867647e+19,-2.9290278210143523e+25,1033.613081676977,2.140131079374643e+24
1.915785635882275e-06,1.5479083959547286e+19,-2.974814126486474e+25,1039.3297184182775,2.1479751618059072e+24
1.935785635882275e-06,1.5442830640738963e+19,-3.0208211267392923e+25,1045.0080949904539,2.1372391393397517e+24
1.9557856358822747e-06,1.5371285459280767e+19,-3.0666740030892588e+25,1050.6487892380744,2.1099380490994807e+24
1.9757856358822745e-06,1.5267916317383748e+19,-3.1120077877961292e+25,1056.25237030035,2.0686624659225644e+24
1.9957856358822743e-06,1.5135644800922114e+19,-3.1565107191431315e+25,1061.8193986026542,2.016160299136286e+24
2.015785635882274e-06,1.4976799409449175e+19,-3.199942006848011e+25,1067.3504258602704,1.9550648246915068e+24
2.035785635882274e-06,1.4793202634376774e+19,-3.2421310982570105e+25,1072.8459950934366,1.887757510131958e+24
2.0557856358822737e-06,1.4586327497734584e+19,-3.2829674273842215e+25,1078.306640652719,1.8163234167888273e+24
2.0757856358822735e-06,1.4357476060484405e+19,-3.3223876078721333e+25,1083.7328882538814,1.7425559168549954e+24
2.0957856358822733e-06,1.4107948097112044e+19,-3.360363952628144e+25,1089.1252550214342,1.667979768257738e+24
2.115785635882273e-06,1.3839179106049565e+19,-3.396895719894662e+25,1094.4842495401203,1.5938754264406447e+24
2.135785635882273e-06,1.3552834629792877e+19,-3.432002974754675e+25,1099.8103719136259,1.5212982063491815e+24
2.1557856358822728e-06,1.3250854748844931e+19,-3.465722286057742e+25,1105.1041138298488,1.451092503368402e+24
2.1757856358822726e-06,1.2935449585457328e+19,-3.4981033850503326e+25,1110.3659586321357,1.383904207462705e+24
2.1957856358822724e-06,1.2609053189363083e+19,-3.5292061387996995e+25,1115.5963813959072,1.3201946827880393e+24
2.215785635882272e-06,1.2274248000384754e+19,-3.559097529313384e+25,1120.7958490101164,1.2602583791009919e+24
2.235785635882272e-06,1.193367416906879e+19,-3.587848626772863e+25,1125.9648202630665,1.2042443721627773e+24
2.255785635882272e-06,1.158993723387115e+19,-3.6155317217860624e+25,1131.1037459321187,1.1521806924266674e+24
2.2757856358822716e-06,1.1245524751361954e+19,-3.6422178258913986e+25,1136.2130688768564,1.1039995700953293e+24
2.2957856358822714e-06,1.0902738623545717e+19,-3.667974698800078e+25,1141.2932241352923,1.059561690859637e+24
2.3157856358822712e-06,1.0563646130257385e+19,-3.6928654687216297e+25,1146.344639022754,1.0186779856240322e+24
2.335785635882271e-06,1.0230049717802631e+19,-3.716947823123748e+25,1151.3677332331108,9.811280870862768e+23
2.355785635882271e-06,9.9034736446836e+18,-3.74027368562376e+25,1156.3629189419923,9.466751618005716e+23
2.3757856358822706e-06,9.585164561409882e+18,-3.762889265734134e+25,1161.330600911719,9.150772574197018e+23
2.3957856358822705e-06,9.276102779571137e+18,-3.7848353658055757e+25,1166.271176597648,8.860955661692715e+23
2.4157856358822703e-06,8.977021118288815e+18,-3.8061478436925977e+25,1171.1850362556988,8.595001221223475e+23
2.43578563588227e-06,8.688428597359115e+18,-3.8268581511802683e+25,1176.0725630507975,8.350734645628192e+23
2.45578563588227e-06,8.410636729140231e+18,-3.846993890598936e+25,1180.9341331660203,8.126127544004672e+23
2.4757856358822697e-06,8.143786653667451e+18,-3.8665793517217864e+25,1185.770115912254,7.91930757316026e+23
2.4957856358822695e-06,7.887875813069238e+18,-3.885636006568699e+25,1190.5808738381447,7.728560271331167e+23
2.5157856358822693e-06,7.642877874731918e+18,-3.903787118748142e+25,1195.3500173770124,7.551795747410374e+23
2.535785635882269e-06,7.408621729477379e+18,-3.921181534629113e+25,1200.0824838878425,7.387873788897879e+23
2.555785635882269e-06,7.184822943884013e+18,-3.937964212637905e+25,1204.7833531668696,7.235726782065039e+23
2.5757856358822687e-06,6.971126824755053e+18,-3.954201477218427e+25,1209.4548397609217,7.094275054169398e+23
2.5957856358822685e-06,6.767132131454152e+18,-3.9699365327504055e+25,1214.098414979866,6.962516280516931e+23
2.6157856358822683e-06,6.572408666130012e+18,-3.9852014076643315e+25,1218.7152019286425,6.83953794388127e+23
2.635785635882268e-06,6.386510929719799e+18,-4.000021473607284e+25,1223.30612147983,6.724516123541369e+23
2.655785635882268e-06,6.208988774840706e+18,-4.014417687139312e+25,1227.87196202353,6.616710188155995e+23
2.6757856358822678e-06,6.039395627645097e+18,-4.028407877923078e+25,1232.4134180477654,6.515456111245762e+23
2.6957856358822676e-06,5.87729470501516e+18,-4.042007561047761e+25,1236.9311136582414,6.420159469213233e+23
2.7157856358822674e-06,5.722263575387705e+18,-4.05523048283628e+25,1241.4256179595657,6.330288597678978e+23
2.735785635882267e-06,5.573897358992968e+18,-4.068089004613665e+25,1245.8974556659402,6.24536812931546e+23
2.755785635882267e-06,5.431810822077023e+18,-4.080594381757585e+25,1250.3471147360463,6.164973012899524e+23
2.775785635882267e-06,5.295639584434768e+18,-4.092756971845836e+25,1254.7750520576944,6.088723048443663e+23
2.7957856358822666e-06,5.165040628240213e+18,-4.104586393025249e+25,1259.1816978019367,6.016277937948126e+23
2.8157856358822664e-06,5.039692267913728e+18,-4.11609164641929e+25,1263.5674588384943,5.9473328319927326e+23
2.8357856358822662e-06,4.919293715295451e+18,-4.1272812119581655e+25,1267.932721469924,5.881614342154784e+23
2.855785635882266e-06,4.803564351567014e+18,-4.138163124203231e+25,1272.2778536591595,5.8188769843286456e+23
2.875785635882266e-06,4.692242797098764e+18,-4.148745032888326e+25,1276.6032068722852,5.7589000162821145e+23
2.8957856358822657e-06,4.585085852613601e+18,-4.1590342516427566e+25,1280.909117623559,5.701484632937778e+23
2.9157856358822655e-06,4.4818673696442527e+18,-4.169037797486202e+25,1285.19590878629,5.6464514841479844e+23
2.9357856358822653e-06,4.38237709508461e+18,-4.178762423058198e+25,1289.463890716824,5.593638481656702e+23
2.955785635882265e-06,4.286419523536544e+18,-4.1882146430890725e+25,1293.7133622273907,5.5428988642176926e+23
2.975785635882265e-06,4.19381278195044e+18,-4.197400756281976e+25,1297.9446114353166,5.4940994922754744e+23
2.9957856358822647e-06,4.1043875635566106e+18,-4.206326863519348e+25,1302.1579165099433,5.447119346088798e+23
3.0157856358822645e-06,4.0179861220844257e+18,-4.2149988831147636e+25,1306.3535463341602,5.401848203613464e+23
3.0357856358822643e-06,3.9344613325673846e+18,-4.223422563679589e+25,1310.531761093941,5.358185476803465e+23
3.055785635882264e-06,3.853675821441249e+18,-4.231603495059055e+25,1314.6928128067627,5.316039187211643e+23
3.075785635882264e-06,3.7755011659781325e+18,-4.239547117699417e+25,1318.8369457976748,5.2753250638455044e+23
3.0957856358822638e-06,3.6998171611943214e+18,-4.247258730736746e+25,1322.964397130269,5.235965748155207e+23
3.1157856358822636e-06,3.6265111510753864e+18,-4.254743499040204e+25,1327.0753969985142,5.1978900927898456e+23
3.1357856358822634e-06,3.555477420147612e+18,-4.2620064593974875e+25,1331.1701690844616,5.161032542357373e+23
3.155785635882263e-06,3.4866166409784376e+18,-4.269052525993006e+25,1335.2489308859756,5.125332585864563e+23
3.175785635882263e-06,3.4198353730166436e+18,-4.275886495301241e+25,1339.3118940180516,5.090734271805243e+23
3.195785635882263e-06,3.3550456082087096e+18,-4.282513050493503e+25,1343.3592644907128,5.05718577801311e+23
3.2157856358822626e-06,3.2921643589896284e+18,-4.288936765438277e+25,1347.3912429660672,5.024639029412346e+23
3.2357856358822624e-06,3.2311132844961905e+18,-4.295162108359716e+25,1351.4080249967274,4.993049357693347e+23
3.2557856358822622e-06,3.171818351151721e+18,-4.301193445207256e+25,1355.409801247512,4.962375197725056e+23
3.275785635882262e-06,3.114209524096214e+18,-4.307035042779176e+25,1359.3967577020808,4.932577816199049e+23
3.295785635882262e-06,3.0582204862652636e+18,-4.3126910716356235e+25,1363.369075855965,4.9036210685957946e+23
3.3157856358822616e-06,3.0037883822418376e+18,-4.3181656088295485e+25,1367.3269328972438,4.8754711810786877e+23
3.3357856358822615e-06,2.9508535843081825e+18,-4.323462640479747e+25,1371.2705018759964,4.8480965543685835e+23
3.3557856358822613e-06,2.8993594784059013e+18,-4.32858606420559e+25,1375.199951863519,4.82146758703662e+23
3.375785635882261e-06,2.849252267968343e+18,-4.333539691439516e+25,1379.1154481021554,4.795556515985714e+23
3.395785635882261e-06,2.800480793819813e+18,-4.3383272496315065e+25,1383.0171521465575,4.7703372721784866e+23
3.4157856358822607e-06,2.7529963685420954e+18,-4.342952384356365e+25,1386.905221997031,4.745785349915821e+23
3.4357856358822605e-06,2.706752623891096e+18,-4.347418661334032e+25,1390.779812225618,4.721877688184191e+23
3.4557856358822603e-06,2.66170537000746e+18,-4.351729568370623e+25,1394.6410740954473,4.6985925627732164e+23
3.47578563588226e-06,2.617812465306499e+18,-4.355888517227553e+25,1398.489155673879,4.6759094880242945e+23
3.49578563588226e-06,2.575033696056968e+18,-4.359898845424513e+25,1402.324201939878,4.6538091272081026e+23
3.5157856358822597e-06,2.5333306647671025e+18,-4.36376381798147e+25,1406.1463548860365,4.632273210648032e+23
3.5357856358822595e-06,2.4926666865916815e+18,-4.367486629104161e+25,1409.9557536156085,4.6112844608096916e+23
3.5557856358822593e-06,2.453006693057577e+18,-4.371070403817012e+25,1413.7525344349044,4.590826523666469e+23
3.575785635882259e-06,2.414317142478591e+18,-4.374518199546941e+25,1417.5368309413598,4.570883905729331e+23
3.595785635882259e-06,2.3765659364950784e+18,-4.3778330076606985e+25,1421.3087741075292,4.551441916196821e+23
