t(s),Adsorbed H on surface 1 (H m-2),solute flux surface 1 (H m-2 s-1),Total T surface 1 (K),0 value at [0] (H m-3)
1e-08,1419877.5361128156,-3460832217310.8125,300.5783946407057,538483555850146.25
2.05e-08,4062309.8128001858,-10281515272183.209,301.48804720789707,932434319210639.0
3.1525e-08,7900896.552858314,-20264474679346.39,302.6796996113877,1251508958349220.0
4.3101250000000004e-08,13147595.365876917,-34205555107901.37,304.135853578082,1570418543118965.0
5.5256312500000004e-08,20272610.294119015,-53726315846533.94,305.85065541304056,1946006821710579.8
6.801912812500001e-08,30087617.997814253,-81638547975975.39,307.8239486547357,2431832879564766.0
8.142008453125001e-08,43917341.02995685,-122666945279495.7,310.0588407955034,3090758784506921.0
9.549108875781251e-08,63913258.04940571,-184791425054592.4,312.56049326427825,4008525696468865.0
1.1026564319570314e-07,93612762.96472695,-281723460198595.1,315.3354332961252,5311593494502446.0
1.2577892535548832e-07,138938479.0246103,-437520665731757.56,318.39111902098693,7193723443060096.0
1.4206787162326273e-07,210006130.0107261,-695316750889514.1,321.73563862001953,9958242248334866.0
1.5917126520442587e-07,324445476.04524755,-1134105633461367.2,325.3774848621074,1.4087423782908234e+16
1.7712982846464716e-07,513570613.49598646,-1901336299593244.8,329.3236426524456,2.035618417234409e+16
1.9598631988787953e-07,834130209.8445436,-3277948011211772.5,333.5842528848179,3.0031350693863104e+16
2.157856358822735e-07,1390878937.9218173,-5808542449717703.0,338.1681995509909,4.520407982005229e+16
2.357856358822735e-07,2323000598.3426065,-1.0295873308390548e+16,342.8934297119827,6.816111101266432e+16
2.557856358822735e-07,3860651575.426614,-1.8117312292223024e+16,347.6981902533005,1.0240018122451707e+17
2.7578563588227355e-07,6382461936.530407,-3.162413954096829e+16,352.56925432225574,1.531453814746586e+17
2.9578563588227357e-07,10490198231.393534,-5.470705891753479e+16,357.4950304483191,2.2782564091608858e+17
3.157856358822736e-07,17130225504.918472,-9.37113141505936e+16,362.46529521533876,3.369053277273736e+17
3.357856358822736e-07,27774777692.5871,-1.5883370514101165e+17,367.47099068507333,4.949767978262139e+17
3.5578563588227363e-07,44688961893.4173,-2.6621890526897286e+17,372.50406344604653,7.221828950666842e+17
3.7578563588227365e-07,71318954977.62488,-4.41052331647645e+17,377.55733356605845,1.0460470603387308e+18
3.9578563588227367e-07,112849158357.39365,-7.220481702913367e+17,382.62438610071916,1.503799705832514e+18
4.157856358822737e-07,176991711028.99753,-1.1678570570301972e+18,387.69948011465,2.1453006571393503e+18
4.357856358822737e-07,275091304548.5857,-1.866071010818585e+18,392.77747157935715,3.036668175711576e+18
4.5578563588227373e-07,423652291383.89514,-2.945685508023407e+18,397.85374744244547,4.26473487433075e+18
4.7578563588227375e-07,646424214996.5497,-4.594091172265623e+18,402.9241688088342,5.942459272574285e+18
4.957856358822737e-07,977216664702.6721,-7.079910398352012e+18,407.98502163807393,8.215428368321395e+18
5.157856358822737e-07,1463655254829.4307,-1.0783265969130293e+19,413.03297370255683,1.1269591019995546e+19
5.357856358822738e-07,2172137936161.5132,-1.623536654096783e+19,418.06503680676906,1.534036379094342e+19
5.557856358822738e-07,3194305036298.8916,-2.416961342794445e+19,423.0785334622124,2.072324991991415e+19
5.757856358822738e-07,4655654126959.987,-3.5591384759176258e+19,428.07496453978945,2.7789616422156227e+19
5.957856358822738e-07,6725969791747.573,-5.185270378509034e+19,433.04818980231323,3.699339017608714e+19
6.157856358822738e-07,9632970969694.934,-7.475905861196823e+19,437.9961709034679,4.889207217879496e+19
6.357856358822739e-07,13679343127565.299,-1.0669517093126814e+20,442.9172355213462,6.4163865087256175e+19
6.557856358822739e-07,19263906946146.047,-1.507791427021699e+20,447.8099036407273,8.362768408057032e+19
6.757856358822739e-07,26907702935266.04,-2.110483420110691e+20,452.6728641685849,1.0826538574404352e+20
6.957856358822739e-07,37285867036849.15,-2.926816768553103e+20,457.50496048098074,1.3924624396865911e+20
7.157856358822739e-07,51266265312695.234,-4.022627341144937e+20,462.3051777646291,1.7795365766774034e+20
7.35785635882274e-07,69955953883934.766,-5.480885157087054e+20,467.07263136026074,2.2601408187017842e+20
7.55785635882274e-07,94756626271255.42,-7.405285076597773e+20,471.80655598441155,2.8532814072472086e+20
7.75785635882274e-07,127430302717294.98,-9.924387387463813e+20,476.50629578303636,3.5810384254386255e+20
7.95785635882274e-07,170176602210378.25,-1.3196352784996555e+21,481.1712951705237,4.468917736184226e+20
8.15785635882274e-07,225723014520270.75,-1.7414312607168382e+21,485.80109040192616,5.546220964795358e+20
8.357856358822741e-07,297429652603440.1,-2.2812409610972284e+21,490.39530182391036,6.846431169743383e+20
8.557856358822741e-07,389410010246283.25,-2.967253656890613e+21,494.95362675050785,8.407611095081176e+20
8.757856358822741e-07,506669269480817.06,-3.8331788879644134e+21,499.47583291226516,1.0272809966230066e+21
8.957856358822741e-07,655261689087069.8,-4.919063238028548e+21,503.9617524307142,1.2490473621095037e+21
9.157856358822741e-07,842468549108527.1,-6.272176753157621e+21,508.4112762737989,1.5114851292245574e+21
9.357856358822742e-07,1076998013630636.1,-7.947964474696121e+21,512.8243491515742,1.8206390492189373e+21
9.55785635882274e-07,1369208088475778.0,-1.0011055115340094e+22,517.2009648151115,2.1832109110666459e+21
9.75785635882274e-07,1731353571105140.5,-1.2536314447188168e+22,521.5411617247977,2.6065930911290286e+21
9.957856358822741e-07,2177857491177636.2,-1.5609925264394255e+22,525.8450190573483,3.0988967015997437e+21
1.0157856358822741e-06,2725606990854647.0,-1.9330468574612154e+22,530.1126530236088,3.668972160370986e+21
1.0357856358822742e-06,3394272857613972.0,-2.3809971704974665e+22,534.3442134717833,4.326419487147697e+21
1.0557856358822742e-06,4206650957848531.0,-2.9174878056111548e+22,538.5398807529832,5.081585032204241e+21
1.0757856358822742e-06,5189022582724265.0,-3.5566880169424975e+22,542.6998628281083,5.945540676648347e+21
1.0957856358822742e-06,6371529165090430.0,-4.314354263385193e+22,546.8243925968912,6.930040834151024e+21
1.1157856358822742e-06,7788554920690343.0,-5.2078624493008704e+22,550.9137254316565,8.047451884969644e+21
1.1357856358822743e-06,9479108687352348.0,-6.256199302454101e+22,554.9681368998235,9.31064806671398e+21
1.1557856358822743e-06,1.1487193590139126e+16,-7.479900350523103e+22,558.9879206605938,1.073286745626979e+22
1.1757856358822743e-06,1.3862150203121366e+16,-8.900920516372764e+22,562.9733865224653,1.2327521674991543e+22
1.1957856358822743e-06,1.6658955732253884e+16,-1.0542422532076974e+23,566.9248586493525,1.410795355642983e+22
1.2157856358822743e-06,1.993845862349349e+16,-1.2428468622600906e+23,570.8426739041017,1.6087138497487968e+22
1.2357856358822744e-06,2.376752523457953e+16,-1.4583602785061638e+23,574.7271803191105,1.8277327855501785e+22
1.2557856358822744e-06,2.8219073254150452e+16,-1.7032315099150193e+23,578.5787356845876,2.0689636815719713e+22
1.2757856358822744e-06,3.337196598710005e+16,-1.9798386422553028e+23,582.3977062457546,2.3333584797725377e+22
1.2957856358822744e-06,3.9310743116224984e+16,-2.2904121935485587e+23,586.1844655009752,2.6216603656646197e+22
1.3157856358822744e-06,4.612516777137667e+16,-2.6369495282756504e+23,589.9393930934274,2.934353730654015e+22
1.3357856358822745e-06,5.390957724152826e+16,-3.0211240859425938e+23,593.6628737895124,3.27161651586786e+22
1.3557856358822745e-06,6.276203570901165e+16,-3.444194858240585e+23,597.3552965377042,3.6332789645611025e+22
1.3757856358822745e-06,7.278330173092326e+16,-3.906923083006557e+23,601.0170536020421,4.0187933372212906e+22
1.3957856358822745e-06,8.407563993464024e+16,-4.4095041869583335e+23,604.6485397648853,4.4272192151265735e+22
1.4157856358822745e-06,9.674152387671579e+16,-4.951523246793499e+23,608.2501515939714,4.857228457309345e+22
1.4357856358822746e-06,1.1088229291188e+17,-5.5319413432480467e+23,611.8222867691635,5.3071325777979154e+22
1.4557856358822746e-06,1.2659683752860205e+17,-6.14911799935474e+23,615.3653434646479,5.774933298549505e+22
1.4757856358822746e-06,1.4398039234457802e+17,-6.800871510654662e+23,618.8797197825999,6.258394499735165e+22
1.4957856358822746e-06,1.631235119658914e+17,-7.484574771801915e+23,622.3658132346916,6.755131090337131e+22
1.5157856358822746e-06,1.8411129164860403e+17,-8.197279823322793e+23,625.824020268002,7.262707928431475e+22
1.5357856358822747e-06,2.070228732616654e+17,-8.935860570367746e+23,629.2547358322103,7.778740313180466e+22
1.5557856358822747e-06,2.3193125014923734e+17,-9.697160707259037e+23,632.658352985107,8.300987117008425e+22
1.5757856358822747e-06,2.5890335599672035e+17,-1.0478133324803295e+24,636.0352625337229,8.827428473006984e+22
1.5957856358822747e-06,2.8800039695302464e+17,-1.1275960107925776e+24,639.3858527085252,9.356321952500962e+22
1.6157856358822747e-06,3.192783667546371e+17,-1.2088141156004643e+24,642.7105088683326,9.886233986215521e+22
1.6357856358822748e-06,3.5278867384812115e+17,-1.29125506449044e+24,646.0096132337575,1.0416046372490548e+23
1.6557856358822748e-06,3.885788082313118e+17,-1.374745799610397e+24,649.2835446471317,1.0944940531493885e+23
1.6757856358822748e-06,4.2669298296706714e+17,-1.4591518153411437e+24,652.5326783570108,1.1472364268424903e+23
1.6957856358822748e-06,4.671726988269566e+17,-1.5443737420176644e+24,655.7573858255007,1.1997986958128444e+23
1.7157856358822748e-06,5.100571974002888e+17,-1.6303422801528535e+24,658.9580345567513,1.2521649232547485e+23
1.7357856358822749e-06,5.553837853596611e+17,-1.7170122948191266e+24,662.1349879450706,1.3043312599070962e+23
1.7557856358822749e-06,6.031880280342973e+17,-1.8043567866455145e+24,665.2886051412594,1.3563013214065384e+23
1.775785635882275e-06,6.535038224600124e+17,-1.892361292964747e+24,668.4192409357898,1.4080822587672044e+23
1.795785635882275e-06,7.063633679980019e+17,-1.9810190811525834e+24,671.5272456576248,1.4596816575638992e+23
1.815785635882275e-06,7.617970565659749e+17,-2.070327311380792e+24,674.6129650874918,1.5111052817611052e+23
1.835785635882275e-06,8.198333051680221e+17,-2.1602841923500315e+24,677.6767403845414,1.5623555913992947e+23
1.855785635882275e-06,8.804983516836456e+17,-2.2508870435168708e+24,680.7189080253848,1.613430911703141e+23
1.875785635882275e-06,9.438160317623141e+17,-2.3421311127044794e+24,683.7397997545539,1.6643251106386112e+23
1.895785635882275e-06,1.0098075510210509e+18,-2.434008973010283e+24,686.7397425455337,1.7150276450405143e+23
1.915785635882275e-06,1.0784912631929832e+18,-2.5265103276562366e+24,689.7190585715218,1.765523853601585e+23
1.935785635882275e-06,1.1498824618166129e+18,-2.619622074847766e+24,692.6780651851673,1.815795400429825e+23
1.9557856358822747e-06,1.223993190664644e+18,-2.7133285169004543e+24,695.6170749065752,1.865820799462727e+23
1.9757856358822745e-06,1.300832076400101e+18,-2.8076116312845606e+24,698.5363954189114,1.915575973798134e+23
1.9957856358822743e-06,1.3804041858256497e+18,-2.9024513509462555e+24,701.4363295709894,1.9650348229280588e+23
2.015785635882274e-06,1.4627109094198116e+18,-2.9978258248551684e+24,704.3171753862532,2.014169784417514e+23
2.035785635882274e-06,1.5477498724830584e+18,-3.0937116466343464e+24,707.1792260776444,2.0629523852168603e+23
2.0557856358822737e-06,1.6355148750163638e+18,-3.1900840499721585e+24,710.0227700678162,2.1113537824944498e+23
2.0757856358822735e-06,1.725995861322937e+18,-3.286917075526174e+24,712.8480910142473,2.159345295738117e+23
2.0957856358822733e-06,1.819178920190338e+18,-3.3841837165711766e+24,715.6554678388262,2.2068989319130153e+23
2.115785635882273e-06,1.9150463163330765e+18,-3.481856050960263e+24,718.445174761477,2.2539879044948382e+23
2.135785635882273e-06,2.0135765535356076e+18,-3.579905366043007e+24,721.2174813374721,2.3005871458080896e+23
2.1557856358822728e-06,2.1147444696283574e+18,-3.678302281704692e+24,723.9726524980604,2.3466738106613073e+23
2.1757856358822726e-06,2.2185213630614e+18,-3.7770168750975967e+24,726.7109485940952,2.392227768003282e+23
2.1957856358822724e-06,2.324875150423652e+18,-3.8760188091656787e+24,729.4326254423528,2.4372320763254416e+23
2.215785635882272e-06,2.4337705538049024e+18,-3.975277465827246e+24,732.137934374255,2.481673437839469e+23
2.235785635882272e-06,2.5451693164296054e+18,-4.074762083701983e+24,734.827122286736,2.525542626059224e+23
2.255785635882272e-06,2.659030444520841e+18,-4.17444189953138e+24,737.5004316950046,2.568834881287142e+23
2.2757856358822716e-06,2.775310472895404e+18,-4.274286291912767e+24,740.1581007869754,2.6115502686178437e+23
2.2957856358822714e-06,2.8939637513604864e+18,-4.3742649256093785e+24,742.800363479161,2.653693993394758e+23
2.3157856358822712e-06,3.0149427485916564e+18,-4.4743478944768786e+24,745.4274494738135,2.6952766695589622e+23
2.335785635882271e-06,3.138198369832043e+18,-4.5745058609395776e+24,748.0395843171556,2.7363145369896752e+23
2.355785635882271e-06,3.2636802844733445e+18,-4.6747101899269676e+24,750.6369894585134,2.776829624722238e+23
2.3757856358822706e-06,3.3913372593683773e+18,-4.774933075236189e+24,753.2198823102057,2.8168498578221047e+23
2.3957856358822705e-06,3.521117493588228e+18,-4.875147656399397e+24,755.7884763080383,2.8564091066641606e+23
2.4157856358822703e-06,3.652968950278616e+18,-4.975328124299664e+24,758.3429809722725,2.8955471783924247e+23
2.43578563588227e-06,3.7868396812916634e+18,-5.075449813985566e+24,760.8836019689464,2.934309751390758e+23
2.45578563588227e-06,3.9226781403706296e+18,-5.175489283372054e+24,763.4105411714221,2.972748254654108e+23
2.4757856358822697e-06,4.0604334808442604e+18,-5.275424376782723e+24,765.9239967220803,3.0109196949918868e+23
2.4957856358822695e-06,4.200055834039785e+18,-5.375234272565931e+24,768.4241630940304,3.048886435989652e+23
2.5157856358822693e-06,4.341476181937168e+18,-5.47420978526163e+24,770.9024384115041,3.086372683674355e+23
2.535785635882269e-06,4.4846312361515535e+18,-5.572408034381009e+24,773.3614298154504,3.1235130277873416e+23
2.555785635882269e-06,4.629465713556509e+18,-5.670015420813643e+24,775.8038122542641,3.16049035148378e+23
2.5757856358822687e-06,4.775929252749103e+18,-5.767128626338692e+24,778.2307528837179,3.197438282888572e+23
2.5957856358822685e-06,4.923975368979576e+18,-5.86380257397536e+24,780.6430279246,3.234472856616731e+23
2.6157856358822683e-06,5.073560975364948e+18,-5.960071419356676e+24,783.0412303685281,3.2717027969179805e+23
2.635785635882268e-06,5.224646115502981e+18,-6.055958133954743e+24,785.4258467631109,3.30923360432333e+23
2.655785635882268e-06,5.377193779772917e+18,-6.151479141744463e+24,787.7972939069642,3.3471693295654084e+23
2.6757856358822678e-06,5.531169752157723e+18,-6.246646744778979e+24,790.1559391484827,3.385613379899405e+23
2.6957856358822676e-06,5.686542463198527e+18,-6.341470489262835e+24,792.5021127615923,3.424668884031336e+23
2.7157856358822674e-06,5.84328283724684e+18,-6.435957981306041e+24,794.8361160397965,3.464438845286636e+23
2.735785635882267e-06,6.001364128291804e+18,-6.530115393724906e+24,797.1582268803293,3.505026194488727e+23
2.755785635882267e-06,6.160761741914943e+18,-6.623947787360387e+24,799.4687038025897,3.546533802290753e+23
2.775785635882267e-06,6.321453042822063e+18,-6.717459314962178e+24,801.7677889404282,3.589064485845196e+23
2.7957856358822666e-06,6.483417148562673e+18,-6.810653347773517e+24,804.0557103343108,3.6327210316081386e+23
2.8157856358822664e-06,6.646634710776298e+18,-6.903532549919179e+24,806.332683729538,3.6776062485506135e+23
2.8357856358822662e-06,6.811087685758393e+18,-6.996098917087725e+24,808.5989140159531,3.723823061353952e+23
2.855785635882266e-06,6.976759096401982e+18,-7.088353790783305e+24,810.8545964010367,3.771474650012344e+23
2.875785635882266e-06,7.143632787695455e+18,-7.180297856099884e+24,813.099917380495,3.820664640015736e+23
2.8957856358822657e-06,7.311693177974519e+18,-7.27193112875215e+24,815.3350555521424,3.8714973456061225e+23
2.9157856358822655e-06,7.480925008060132e+18,-7.363252935556618e+24,817.5601823065323,3.924078067316774e+23
2.9357856358822653e-06,7.651313090281491e+18,-7.454261891439758e+24,819.7754624192153,3.978513444015352e+23
2.955785635882265e-06,7.822842059197958e+18,-7.544955875210987e+24,821.9810545634376,4.0349118589258785e+23
2.975785635882265e-06,7.995496125608551e+18,-7.635332005693131e+24,824.1771117577418,4.0933838985703574e+23
2.9957856358822647e-06,8.16925883518299e+18,-7.725386619289142e+24,826.3637817597224,4.1540428632279825e+23
3.0157856358822645e-06,8.34411283277406e+18,-7.81511524964885e+24,828.5412074148085,4.217005327344808e+23
3.0357856358822643e-06,8.520039633185831e+18,-7.904512609761143e+24,830.7095269671499,4.282391748328643e+23
3.055785635882264e-06,8.697019398883347e+18,-7.993572576517347e+24,832.8688743383046,4.350327122319109e+23
3.075785635882264e-06,8.87503072484281e+18,-8.082288177563263e+24,835.0193793783646,4.4209416858193496e+23
3.0957856358822638e-06,9.054050430461323e+18,-8.170651580069842e+24,837.1611680933187,4.494371662495194e+23
3.1157856358822636e-06,9.234053358174579e+18,-8.258654080906587e+24,839.2943628518108,4.5707600549749396e+23
3.1357856358822634e-06,9.415012178169727e+18,-8.346286097584102e+24,841.4190825739081,4.650257482090723e+23
3.155785635882263e-06,9.596897198327382e+18,-8.43353715925029e+24,843.5354429040843,4.733023062672427e+23
3.175785635882263e-06,9.77967617827672e+18,-8.520395896968925e+24,845.6435563702847,4.819225347704184e+23
3.195785635882263e-06,9.963314146193529e+18,-8.606850032479444e+24,847.7435325306467,4.90904330335102e+23
3.2157856358822626e-06,1.0147773216702398e+19,-8.692886364634262e+24,849.8354781092362,5.002667348022704e+23
3.2357856358822624e-06,1.0333012407946684e+19,-8.778490752731619e+24,851.9194971219691,5.100300447217011e+23
3.2557856358822622e-06,1.0518987455544982e+19,-8.86364809600661e+24,853.995690993711,5.2021592703203024e+23
3.275785635882262e-06,1.0705650620737665e+19,-8.948342308619609e+24,856.0641586674416,5.308475413774352e+23
3.295785635882262e-06,1.089295048951269e+19,-9.032556289585675e+24,858.124996706239,5.4194966949518556e+23
3.3157856358822616e-06,1.1080831758851308e+19,-9.116271887233376e+24,860.1782993887572,5.535488520605694e+23
3.3357856358822615e-06,1.1269235005408784e+19,-9.199469857974717e+24,862.2241587987825,5.6567353327108226e+23
3.3557856358822613e-06,1.1458096430890992e+19,-9.282129819425402e+24,864.2626649093859,5.7835421326923555e+23
3.375785635882261e-06,1.1647347577042913e+19,-9.364230198261385e+24,866.2939056621368,5.916236082142442e+23
3.395785635882261e-06,1.1836915001455622e+19,-9.445748173662116e+24,868.3179670417852,6.055168173780026e+23
3.4157856358822607e-06,1.2026719903236663e+19,-9.526659617819914e+24,870.3349331467738,6.200714960069072e+23
3.4357856358822605e-06,1.2216677684872915e+19,-9.606939035850603e+24,872.3448862559153,6.35328031785899e+23
3.4557856358822603e-06,1.2406697433226887e+19,-9.686559508602315e+24,874.3479068915215,6.513297214657827e+23
3.47578563588226e-06,1.2596681298414713e+19,-9.765492643445472e+24,876.344073879252,6.681229424368882e+23
3.49578563588226e-06,1.2786523744172247e+19,-9.843708540285442e+24,878.3334644049208,6.857573115720287e+23
3.5157856358822597e-06,1.2976110637075704e+19,-9.921175782975779e+24,880.3161540684771,7.04285820280492e+23
3.5357856358822595e-06,1.316531813450605e+19,-9.99786147029044e+24,882.2922169353551,7.23764930094969e+23
3.5557856358822593e-06,1.3354011322429034e+19,-1.0073731305989906e+25,884.2617255853725,7.442546068388872e+23
3.575785635882259e-06,1.3542042543885318e+19,-1.0148749774735775e+25,886.2247511593408,7.658182629551327e+23
3.595785635882259e-06,1.372924934768969e+19,-1.0222880440233318e+25,888.1813634035336,7.885225662394709e+23
3.6157856358822588e-06,1.3915451974660987e+19,-1.029608641468767e+25,890.1316307121558,8.124370581823744e+23
3.6357856358822586e-06,1.4100450286691006e+19,-1.0368331065204833e+25,892.0756201679214,8.376335054161789e+23
