t(s),Adsorbed H on surface 1 (H m-2),solute flux surface 1 (H m-2 s-1),Total T surface 1 (K),0 value at [0] (H m-3)
1e-10,182.73039080589518,-238123549324.34164,300.1416940896033,7008280197647.907
2.0500000000000002e-10,568.5481365935714,-517387824379.5049,300.22065359836483,14064047786650.836
3.1525e-10,1178.7649025878418,-839049754627.3073,300.2867658456598,21148705854241.836
4.3101250000000007e-10,2036.188297267155,-1205007791968.2058,300.3483685492064,28256425974055.85
5.525631250000001e-10,3165.3853801257583,-1617255183731.9214,300.40873777538656,35385712590433.49
6.801912812500001e-10,4592.936544753204,-2077844925910.4827,300.4696916626347,42538279707786.74
8.142008453125001e-10,6347.712867495277,-2588892029868.2583,300.53248591085173,49718702366968.336
9.549108875781252e-10,8461.192673412663,-3152592729076.9995,300.5981360254527,56934346073336.34
1.1026564319570316e-09,10967.829549741222,-3771256412876.17,300.66756347685566,64195424700180.89
1.2577892535548832e-09,13905.484228097423,-4447350154594.55,300.74167545485983,71515135077881.06
1.4206787162326274e-09,17315.934638414154,-5183557336179.143,300.821416607922,78909852799810.22
1.591712652044259e-09,21245.481611275063,-5982852937928.824,300.90780871029,86399391421929.23
1.7712982846464719e-09,25745.672284328153,-6848599111102.521,301.0019859301508,94007338801730.92
1.9598631988787956e-09,30874.16964018443,-7784665937473.563,301.10523000336315,101761494461828.75
2.1578563588227356e-09,36695.80540711527,-8795584004055.978,301.21900819116473,109694442836704.56
2.3578563588227357e-09,43016.56623394469,-9844390069836.273,301.3400064906721,117539951969378.02
2.557856358822736e-09,49774.39288914959,-10920418325425.45,301.4676376712434,125258462486484.81
2.757856358822736e-09,56968.51314524825,-12023785526337.193,301.60245658722454,132887199860051.2
2.957856358822736e-09,64600.32753297262,-13155131210861.166,301.7450192012441,140460526663984.39
3.1578563588227363e-09,72673.34182646422,-14315587009099.52,301.8958893621986,148010615177776.22
3.3578563588227364e-09,81193.13582971465,-15506757380569.451,302.05564369028065,155568047795906.72
3.5578563588227366e-09,90167.36644766855,-16730710935781.574,302.2248753758047,163162359659514.75
3.757856358822737e-09,99605.80383989886,-17989981764571.316,302.4041972779553,170822536840712.12
3.957856358822737e-09,109520.4002495913,-19287580470463.477,302.59424454954853,178577482388014.03
4.157856358822737e-09,119925.39189344064,-20627014883392.13,302.79567693206457,186456461715756.34
4.357856358822737e-09,130837.43510852961,-22012320698247.3,303.0091808174052,194489538239717.12
4.557856358822737e-09,142275.77880285808,-23448102572681.617,303.2354711428576,202708009848388.7
4.757856358822737e-09,154262.47617283376,-24939586524485.39,303.4752931660917,211144856770573.8
4.9578563588227375e-09,166822.63966375278,-26492684808195.52,303.7294241537252,219835211672872.28
5.157856358822738e-09,179984.74429328425,-28114074835911.098,303.9986750077606,228816863419062.7
5.357856358822738e-09,193780.98577506625,-29811294154610.395,304.28389184766377,238130806880913.94
5.557856358822738e-09,208247.70142015282,-31592854021105.965,304.58595756113004,247821852552788.0
5.757856358822738e-09,223425.86361973785,-33468374750203.645,304.90579333311973,257939311552730.06
5.957856358822738e-09,239361.65789915936,-35448746781699.984,305.2443601601514,268537773972680.94
6.157856358822738e-09,256107.1601749652,-37546322355477.49,305.6026603548794,279678001576860.25
6.3578563588227385e-09,273721.13106194563,-39775143849325.195,305.9817390444629,291427959678126.5
6.557856358822739e-09,292269.9490144622,-42151216282910.36,306.3826856650508,303864017824140.7
6.757856358822739e-09,311828.7089349531,-44692833302946.12,306.80663545375546,317072354924749.75
6.957856358822739e-09,332482.5188827525,-47420968241770.336,307.2547709387268,331150611938477.6
7.157856358822739e-09,354328.03497624333,-50359744717823.43,307.72832342730266,346209844579187.8
7.357856358822739e-09,377475.2838967144,-53537004896313.516,308.22857449168686,362376840177270.06
7.557856358822738e-09,402049.8340841185,-56984998180466.75,308.75685745114913,379796877440127.0
7.757856358822739e-09,428195.3914256395,-60741219059619.38,309.3145588493558,398637026184458.7
7.957856358822739e-09,456076.9138397548,-64849430498813.43,309.90311992509226,419090107163083.0
8.157856358822739e-09,485884.3627780986,-69360919145461.914,310.52403807433194,441379461180618.44
8.357856358822739e-09,517837.2397834997,-74336041459283.86,311.17886830132653,465764713468370.0
8.557856358822739e-09,552190.0948033506,-79846136590033.78,311.869224656138,492548765956934.1
8.75785635882274e-09,589239.2425407334,-85975903709721.03,312.596781655796,522086309497866.7
8.95785635882274e-09,629330.9871564062,-92826370277686.78,313.36327568604196,554794223974292.56
9.15785635882274e-09,672871.738682572,-100518615721946.86,314.1705063804168,591164331500686.4
9.35785635882274e-09,720340.5126974271,-109198465456499.33,315.02033797325,631779092989669.2
9.55785635882274e-09,772304.4463777031,-119042437404832.92,315.9147006229209,677330999771660.4
9.75785635882274e-09,829438.1501312067,-130265313299434.75,316.8555917015923,728646620972406.2
9.95785635882274e-09,892547.9597295943,-143129828322934.8,317.8450770474376,786716538980663.2
1.015785635882274e-08,962602.4798236334,-157959136748435.75,318.88529217523563,852732759576954.6
1.035785635882274e-08,1040771.2441530976,-175152934318721.2,319.9784434410402,928135646911153.6
1.055785635882274e-08,1128473.8994835531,-195208422891202.06,321.12680915650367,1014673042447063.2
1.075785635882274e-08,1227443.1029504333,-218747721376762.56,322.33274064828134,1114475029634318.8
1.095785635882274e-08,1339805.3805051239,-246553904535125.3,323.59866325783076,1230148867816271.0
1.1157856358822741e-08,1468185.6313040955,-279618652219263.4,324.9270772767884,1364900028373856.5
1.1357856358822741e-08,1615842.9244539423,-319205608307731.7,326.3205588130034,1522687143857712.5
1.1557856358822741e-08,1786847.924868516,-366935113083816.2,327.78176058220527,1708421191243152.0
1.1757856358822741e-08,1986315.9927818053,-424898175970740.56,329.3134126201902,1928222598309395.2
1.1957856358822741e-08,2220715.1362849814,-495810673700637.5,330.91832291033006,2189754496002524.8
1.2157856358822742e-08,2498275.14182071,-583223194449182.1,332.5993779211381,2502656463993561.5
1.2357856358822742e-08,2829534.199287776,-691808289292893.2,334.35954304856546,2879111417237184.0
1.2557856358822742e-08,3228073.3770576795,-827756002041852.1,336.201862957657,3334589568609492.0
1.2757856358822742e-08,3711509.120942517,-999321700400908.1,338.12946181814965,3888828800893598.0
1.2957856358822742e-08,4302842.06188003,-1217589311066834.5,340.1455434285934,4567131853940810.0
1.3157856358822742e-08,5032300.475033818,-1497540872262861.8,342.2533912235393,5402089659172323.0
1.3357856358822742e-08,5939874.077982902,-1859564044097322.2,344.4563681583616,6435879978581030.0
1.3557856358822743e-08,7078816.318351055,-2331589130319277.0,346.7579164662858,7723345491996050.0
1.3757856358822743e-08,8520512.407350803,-2952135694042802.5,349.16155728223606,9336131604503738.0
1.3957856358822743e-08,10361283.1300427,-3774680224504106.5,351.67089012813807,1.136826991887678e+16
1.4157856358822743e-08,12731946.138558952,-4873952075892914.0,354.2895922544095,1.3943740363268368e+16
1.4357856358822743e-08,15811324.530614434,-6355057771267454.0,357.02141783239534,1.7226750052885818e+16
1.4557856358822743e-08,19845432.991553567,-8366773575906677.0,359.8701969926459,2.1435753620645976e+16
1.4757856358822743e-08,25174868.33421393,-1.112100908943811e+16,362.8398347039883,2.6862641205200548e+16
1.4957856358822742e-08,32274109.432539657,-1.4921446959578216e+16,365.93430948849846,3.389908350724399e+16
1.515785635882274e-08,41808180.02008884,-2.0205884342431012e+16,369.15767196759623,4.3072814747791304e+16
1.535785635882274e-08,54714730.927205324,-2.7609114971216932e+16,372.51404323462407,5.509774795872973e+16
1.5557856358822737e-08,72323485.2469098,-3.8056719185489304e+16,376.0076130494531,7.094338573632412e+16
1.5757856358822736e-08,96530809.6086332,-5.290552411001749e+16,379.64263785081255,9.193120136615896e+16
1.5957856358822734e-08,130055909.83152317,-7.415476151992266e+16,383.4234385822395,1.1986878572623837e+17
1.6157856358822733e-08,176818289.21059018,-1.0476463631417504e+17,387.3543983277379,1.5723695964381642e+17
1.635785635882273e-08,242495912.10178027,-1.491385154572493e+17,391.4399597534663,2.074512682650773e+17
1.655785635882273e-08,335353413.5934651,-2.1385494605221357e+17,395.6846223519564,2.75228047993811e+17
1.6757856358822728e-08,467474893.07178044,-3.0878190306778886e+17,400.0929394856565,3.6709763369700595e+17
1.6957856358822727e-08,656583939.2832034,-4.487380888981754e+17,404.6668552160319,4.920904890015378e+17
1.7157856358822725e-08,928808943.4311029,-6.561434002464932e+17,409.41345696053105,6.628005286651348e+17
1.7357856358822724e-08,1322804696.135088,-9.64959407101955e+17,414.3376337432999,8.96783120166807e+17
1.7557856358822722e-08,1895948698.916678,-1.426780803789157e+18,419.4440982698421,1.2185494527531008e+18
1.775785635882272e-08,2733669101.3052187,-2.1201769875405417e+18,424.73759406879407,1.6623750606926666e+18
1.795785635882272e-08,3963504669.534425,-3.165033673052647e+18,430.22290029830674,2.2762492066471406e+18
1.8157856358822718e-08,5776318045.343808,-4.744576630046941e+18,435.90482689545064,3.1274260843859507e+18
1.8357856358822716e-08,8458322113.633668,-7.139186192268032e+18,441.7882089327945,4.31022183359565e+18
1.8557856358822715e-08,12439445348.869783,-1.0778285370441794e+19,447.8779009908568,5.956954550258209e+18
1.8757856358822713e-08,18366367340.255844,-1.6319885900994417e+19,454.178771550792,8.253273559975395e+18
1.895785635882271e-08,27212762261.702747,-2.4772371667587346e+19,460.6956973372309,1.1459603490135663e+19
1.915785635882271e-08,40445577127.416695,-3.768062587008542e+19,467.43355755552983,1.5941083646535264e+19
1.935785635882271e-08,60275542838.18866,-5.740989977073074e+19,474.3972279865828,2.220927382473039e+19
1.9557856358822707e-08,90034027751.37527,-8.757767697102715e+19,481.59157491581493,3.0980102265279377e+19
1.9757856358822705e-08,134738911090.7897,-1.3370881718731704e+20,489.02144888169823,4.3254151317539815e+19
1.9957856358822704e-08,201942425112.8321,-2.042262191496425e+20,496.69167823471656,6.0427541333857575e+19
2.0157856358822702e-08,302998252771.2003,-3.119434722604788e+20,504.6070625013477,8.444454795875131e+19
2.03578563588227e-08,454949768639.5084,-4.763050275618673e+20,512.7723655500658,1.18006878571447e+20
2.05578563588227e-08,683334909948.0984,-7.267338837977007e+20,521.1923085580588,1.6485949549072024e+20
2.0757856358822698e-08,1026337972476.626,-1.1076112985421509e+21,529.87156277857,2.3017931841145792e+20
2.0957856358822696e-08,1540911563695.6357,-1.6856476629959054e+21,538.8147421096904,3.2110144147545994e+20
2.1157856358822695e-08,2311766245807.7563,-2.5607356024901657e+21,548.0263954661441,4.474281052355726e+20
2.1357856358822693e-08,3464512654608.0977,-3.8818419573517645e+21,557.5109989562027,6.225790861471522e+20
2.1557856358822692e-08,5184783602854.853,-5.870142615848322e+21,567.2729478663764,8.648589924028014e+20
2.175785635882269e-08,7745918475627.997,-8.852495833087738e+21,577.3165484569901,1.1991378349527815e+21
2.195785635882269e-08,11548833610267.75,-1.3309566082142163e+22,587.6460095721887,1.6590668750018755e+21
2.2157856358822687e-08,17179127221135.682,-1.9944553247751377e+22,598.2654340683429,2.2899828548136558e+21
2.2357856358822686e-08,25488400169431.04,-2.978067723416601e+22,609.1788100652547,3.152690998560251e+21
2.2557856358822684e-08,37709371967788.5,-4.429846937053492e+22,620.3900020250119,4.328361244551925e+21
2.2757856358822683e-08,55617823492483.34,-6.5627678803789905e+22,631.902741663808,5.924822369769574e+21
2.295785635882268e-08,81758992003948.27,-9.681365868688562e+22,643.7206187025549,8.084602343970083e+21
2.315785635882268e-08,119761938161648.11,-1.4218394914666825e+23,655.8470714626671,1.099512002275271e+22
2.3357856358822678e-08,174773148566734.66,-2.0784904611492773e+23,668.2853773139954,1.4901512403156975e+22
2.3557856358822677e-08,254050408449505.12,-3.0238065792622965e+23,681.0386429825584,2.0122656046089327e+22
2.3757856358822675e-08,367770336715148.2,-4.377225716737e+23,694.1097947264517,2.7071014669560853e+22
2.3957856358822674e-08,530118305539861.0,-6.304030686898682e+23,707.50156838912,3.6277015717528715e+22
2.4157856358822672e-08,760748192421795.8,-9.031337628457865e+23,721.2164993400812,4.841871160517997e+22
2.435785635882267e-08,1086721840122959.6,-1.286897366624753e+24,735.256912314168,6.435750284409963e+22
2.455785635882267e-08,1545064309967313.0,-1.8236452784104874e+24,749.624911161445,8.518066673413386e+22
2.4757856358822667e-08,2186100661574659.8,-2.5697431977980964e+24,764.3223685211425,1.1225131151923272e+23
2.4957856358822666e-08,3077771995732614.0,-3.6003159700839946e+24,779.3509154342507,1.4726610957416213e+23
2.5157856358822664e-08,4311160562864236.0,-5.014646115852405e+24,794.7119309108294,1.9232067807348272e+23
2.5357856358822663e-08,6007481654212365.0,-6.94276533578781e+24,810.4065314696176,2.4998166293214136e+23
2.555785635882266e-08,8326816610289073.0,-9.553331307384888e+24,826.435560669178,3.233632912478695e+23
2.575785635882266e-08,1.1478855142210778e+16,-1.3062783473370587e+25,842.7995786515767,4.162041905337465e+23
2.595785635882266e-08,1.5735868760313274e+16,-1.774559327526747e+25,859.4988517214824,5.329373859514125e+23
2.6157856358822657e-08,2.1448025005605056e+16,-2.3945129520646773e+25,876.533341985569,6.787423163112714e+23
2.6357856358822655e-08,2.906093960385362e+16,-3.208420465344192e+25,893.902697079199,8.595622454156935e+23
2.6557856358822654e-08,3.913500691452274e+16,-4.267371093091805e+25,911.6062400095747,1.0820635848311237e+24
2.6757856358822652e-08,5.236550036120578e+16,-5.63168781016987e+25,929.6429591468157,1.3535058750458214e+24
2.695785635882265e-08,6.960165539995598e+16,-7.3705630563400466e+25,948.0114983967798,1.6814839139433267e+24
2.715785635882265e-08,9.186193566290752e+16,-9.560446420198723e+25,966.7101475918398,2.0734996900972847e+24
2.7357856358822648e-08,1.203415160734621e+17,-1.2281658140361418e+26,985.7368331382617,2.536326254012863e+24
2.7557856358822646e-08,1.5640691010779414e+17,-1.5612736415957724e+26,1005.0891089612559,3.075145127793735e+24
2.7757856358822645e-08,2.0157202252329334e+17,-1.962224935751498e+26,1024.7641477911818,3.6924801128383916e+24
2.7957856358822643e-08,2.574503002433745e+17,-2.4358293303104697e+26,1044.7587328367233,4.3870161969079263e+24
2.8157856358822642e-08,3.256796998045473e+17,-2.9836669407233635e+26,1065.0692498931014,5.152475095572407e+24
2.835785635882264e-08,4.078212438746406e+17,-3.602964322954633e+26,1085.6916799355017,5.976795149994846e+24
2.855785635882264e-08,5.0523768659218797e+17,-4.2857918955012476e+26,1106.6215922498188,6.841894505780751e+24
2.8757856358822637e-08,6.189649911787604e+17,-5.018855451405653e+26,1127.8541381545317,7.724244303804442e+24
2.8957856358822636e-08,7.495939332769272e+17,-5.7840673058180424e+26,1149.3840453689486,8.596330559909709e+24
2.9157856358822634e-08,8.971802020761075e+17,-6.55990584464885e+26,1171.2056130841734,9.428874358640282e+24
2.9357856358822633e-08,1.0611979852681654e+18,-7.323364085718453e+26,1193.3127077938875,1.019348636912017e+25
2.955785635882263e-08,1.2405449889004534e+18,-8.052133947174094e+26,1215.698759942346,1.08653320104941e+25
2.975785635882263e-08,1.43359827047381e+18,-8.726636577727676e+26,1238.3567614468375,1.1425409595678833e+25
2.995785635882263e-08,1.6383124345506232e+18,-9.331592898135012e+26,1261.27926415118,1.1862161667880586e+25
3.015785635882263e-08,1.8523460313896264e+18,-9.856977332991456e+26,1284.4583792655872,1.2172278447964973e+25
3.035785635882263e-08,2.0731986278152988e+18,-1.0298339026142746e+27,1307.8857778463848,1.2360655508282822e+25
3.0557856358822633e-08,2.2983396377036055e+18,-1.0656562498384984e+27,1331.5526923666023,1.2439527992654787e+25
3.0757856358822635e-08,2.525310508462133e+18,-1.0937171441050235e+27,1355.4499194252883,1.2426855317575804e+25
3.095785635882264e-08,2.751784740324488e+18,-1.1149283344066721e+27,1379.567823639592,1.2344111956857558e+25
3.115785635882264e-08,2.975576120979999e+18,-1.1304330184313213e+27,1403.8963427591211,1.221375610553122e+25
3.135785635882264e-08,3.194594488519034e+18,-1.1414683983796902e+27,1428.4249940368602,1.2056756578530742e+25
3.155785635882264e-08,3.4067590137491963e+18,-1.149235382565628e+27,1453.1428818850472,1.1890592521824471e+25
3.1757856358822644e-08,3.6098889758489585e+18,-1.1547926873624017e+27,1478.0387068378332,1.1728053036657884e+25
3.1957856358822646e-08,3.8015985950747105e+18,-1.158988877959328e+27,1503.1007758353735,1.1576964439155157e+25
3.215785635882265e-08,3.9792239291549553e+18,-1.1624378494274014e+27,1528.3170138362468,1.1440732932512357e+25
3.235785635882265e-08,4.1398060213497206e+18,-1.1655333728985431e+27,1553.674976756833,1.1319406618555949e+25
3.255785635882265e-08,4.280146640129813e+18,-1.1684903354963657e+27,1579.1618657275858,1.1210900421339582e+25
3.275785635882265e-08,4.396942648317509e+18,-1.1713970429937053e+27,1604.7645426470992,1.1112093287440722e+25
3.2957856358822655e-08,4.4869933489941775e+18,-1.1742649051315271e+27,1630.469547005576,1.1019643722379239e+25
3.3157856358822657e-08,4.547462664218359e+18,-1.1770671318159138e+27,1656.2631139398936,1.0930504081312196e+25
3.335785635882266e-08,4.57616568728027e+18,-1.179763937933948e+27,1682.131193473015,1.08421962867842e+25
3.355785635882266e-08,4.5718392434568187e+18,-1.1823160236412729e+27,1708.0594708811718,1.0752932544795336e+25
3.375785635882266e-08,4.5343519876821064e+18,-1.1846900076757273e+27,1734.0333881231375,1.0661645241469672e+25
3.3957856358822664e-08,4.464814417060073e+18,-1.1868594759012329e+27,1760.0381662571842,1.056795981361983e+25
3.4157856358822666e-08,4.365563905710344e+18,-1.1888042923197045e+27,1786.0588287630737,1.0472123235402529e+25
3.435785635882267e-08,4.2400218655944586e+18,-1.1905096243899749e+27,1812.0802256788065,1.0374894606528575e+25
3.455785635882267e-08,4.092443688712744e+18,-1.1919652167336519e+27,1838.0870584549707,1.0277408356581923e+25
3.475785635882267e-08,3.927600593640893e+18,-1.1931649321660293e+27,1864.0639054234828,1.0181026620690234e+25
3.495785635882267e-08,3.7504410554950026e+18,-1.1941063965876441e+27,1889.9952477724094,1.0087199486512315e+25
3.5157856358822675e-08,3.5657769246772157e+18,-1.1947905983995422e+27,1915.8654959144767,9.997348510544686e+24
3.5357856358822676e-08,3.3780280290437356e+18,-1.195221380021106e+27,1941.659016133878,9.912782013795853e+24
3.555785635882268e-08,3.1910434976505196e+18,-1.1954048401309924e+27,1967.36015739413,9.83464323404426e+24
3.575785635882268e-08,3.0080028317686093e+18,-1.1953487083444944e+27,1992.9532781890289,9.763886793993587e+24
3.595785635882268e-08,2.831388087276536e+18,-1.195061759293738e+27,2018.4227733192354,9.70127607611977e+24
3.6157856358822684e-08,2.663011727924911e+18,-1.194553315021421e+27,2043.7531004786533,9.647393699203231e+24
3.6357856358822685e-08,2.5040824680526203e+18,-1.1938328589520523e+27,2068.928806537523,9.602658495673099e+24
3.655785635882269e-08,2.355292541147915e+18,-1.1929097620602062e+27,2093.934553412998,9.567344273120639e+24
3.675785635882269e-08,2.2169128633394012e+18,-1.1917931067861225e+27,2118.7551434228158,9.541597534262271e+24
3.695785635882269e-08,2.088886271051156e+18,-1.1904915870456385e+27,2143.375544023452,9.525452863040232e+24
3.715785635882269e-08,1.970912556261367e+18,-1.1890134615411528e+27,2167.780911840742,9.518845742040508e+24
3.7357856358822694e-08,1.8625219523723773e+18,-1.1873665402038578e+27,2191.956615908259,9.52162317787029e+24
3.7557856358822696e-08,1.763135891695291e+18,-1.1855581880138905e+27,2215.8882600366555,9.533552772715784e+24
