t(s),Adsorbed H on surface 1 (H m-2),solute flux surface 1 (H m-2 s-1),Total T surface 1 (K),0 value at [0] (H m-3)
1e-10,179.77795743800752,-234287953385.46274,300.03544515745335,6913951832592.565
2.0500000000000002e-10,557.3197663684725,-506250660377.3754,300.0551847669012,13821165068117.695
3.1525e-10,1151.599568583487,-816997832857.4957,300.0717125330355,20710770106900.914
4.3101250000000007e-10,1982.854604174062,-1167964676977.8735,300.08711290078134,27578959852398.36
5.525631250000001e-10,3072.7235218129035,-1560537445285.9797,300.1022048687591,34423866217529.277
6.801912812500001e-10,4444.391959169737,-1996039590338.3174,300.11744295820733,41245321236716.42
8.142008453125001e-10,6122.754484308395,-2475728446453.1836,300.1331410816196,48044796176172.29
9.549108875781252e-10,8134.597545170453,-3000797419964.436,300.1495531018303,54825392331639.31
1.1026564319570316e-09,10508.807037160175,-3572382646905.392,300.16690937071166,61591844448531.96
1.2577892535548832e-09,13276.603933081047,-4191574016150.1284,300.1854366667628,68350522453992.41
1.4206787162326274e-09,16471.8116066494,-4859430761996.416,300.2053711288447,75109426581853.58
1.591712652044259e-09,20131.15890155984,-5577001968101.594,300.22696817165456,81878175635694.11
1.7712982846464719e-09,24294.62365133829,-6345352425406.594,300.25051130110336,88667991152206.92
1.9598631988787956e-09,29005.82229140708,-7165594402575.006,300.2763209055931,95491682659653.61
2.1578563588227356e-09,34312.45251037141,-8038926050581.472,300.304763742608,102363641501736.83
2.3578563588227357e-09,40027.21666485844,-8931163626431.012,300.3350113321726,109045404468587.05
2.557856358822736e-09,46085.27255743293,-9831646600152.281,300.36691685082303,115501025440368.02
2.757856358822736e-09,52477.13766182777,-10738962795189.447,300.40061897163304,121759731463709.25
2.957856358822736e-09,59194.7111163222,-11652042264900.94,300.43625663883364,127846985213354.38
3.1578563588227363e-09,66231.1148208348,-12570106926553.59,300.47397076244454,133785089883538.38
3.3578563588227364e-09,73580.5613366213,-13492628907353.54,300.51390543882655,139593700519342.58
3.5578563588227366e-09,81238.24456984866,-14419296225136.543,300.5562088995683,145290256764934.06
3.757856358822737e-09,89200.24987593207,-15349984649306.121,300.6010342852716,150890349713579.8
3.957856358822737e-09,97463.48077625707,-16284734779672.629,300.64854030075065,156408033572743.1
4.157856358822737e-09,106025.59994845747,-17223733542964.445,300.6988917876981,161856091182275.2
4.357856358822737e-09,114884.98254911328,-18167299443260.734,300.7522602389198,167246261008652.88
4.557856358822737e-09,124040.68026503694,-19115871017558.73,300.80882427074545,172589432047455.34
4.757856358822737e-09,133492.39477606543,-20069998044702.926,300.86877006530887,177895812067135.53
4.9578563588227375e-09,143240.4595568806,-21030335138000.156,300.9322917910676,183175073790910.44
5.157856358822738e-09,153285.8291550297,-21997637421582.83,300.99959200762305,188436482915547.84
5.357856358822738e-09,163630.07526315088,-22972758050131.355,301.0708820592675,193689011284849.47
5.557856358822738e-09,174275.3890606872,-23956647382764.12,301.1463824605018,198941438053884.3
5.757856358822738e-09,185224.58943861592,-24950353666319.168,301.22632327590156,204202441282488.78
5.957856358822738e-09,196481.13684384766,-25955025122226.016,301.3109444960585,209480682070668.44
6.157856358822738e-09,208049.15259137345,-26971913365868.57,301.400496410832,214784883083863.28
6.3578563588227385e-09,219933.4435949843,-28002378118784.043,301.4952399807648,220123903103961.53
6.557856358822739e-09,232139.532564166,-29047893203139.676,301.5954472072193,225506809075408.97
6.757856358822739e-09,244673.69380806552,-30110053835492.605,301.7014015015512,230942946989069.8
6.957856358822739e-09,257542.99487955982,-31190585263635.902,301.81339805344396,236442012855139.47
7.157856358822739e-09,270755.34438566875,-32291352817086.695,301.93174419836953,242014124956913.1
7.357856358822739e-09,284319.5463870502,-33414373469192.652,302.0567597840032,247669898547034.78
7.557856358822738e-09,298245.36191134783,-34561829037639.957,302.1887775353082,253420524145288.88
7.757856358822739e-09,312543.5782150825,-35736081181092.88,302.3281434179045,259277850621130.34
7.957856358822739e-09,327226.08654911205,-36939688383584.086,302.4752169992475,265254474294818.38
8.157856358822739e-09,342305.9693162056,-38175425155998.81,302.6303718070629,271363835368790.44
8.357856358822739e-09,357797.5976590886,-39446303726549.4,302.79399568441295,277620323107105.28
8.557856358822739e-09,373716.7406869392,-40755598540662.4,302.96649114070044,284039391317501.6
8.75785635882274e-09,390080.6877418176,-42106873946529.37,303.14827569785683,290637685860806.2
8.95785635882274e-09,406908.38532860414,-43504015507254.48,303.3397822309024,297433186119949.5
9.15785635882274e-09,424220.5905882424,-44951265455915.055,303.54145930201,304445362610631.75
9.35785635882274e-09,442040.0434909608,-46453262898135.51,303.7537714871543,311695353213857.3
9.55785635882274e-09,460391.6602714153,-48015089470587.37,303.97719969437634,319206160864613.44
9.75785635882274e-09,479302.7510305822,-49642321286354.875,304.2122414726476,327002875950092.25
9.95785635882274e-09,498803.2649007558,-51341088143177.78,304.4594113102714,335112927166117.25
1.015785635882274e-08,518926.06672339694,-53118141142864.87,304.71924092171673,343566365165260.6
1.035785635882274e-08,539707.249840739,-54980930075334.94,304.9922795217379,352396184020699.1
1.055785635882274e-08,561186.4903701859,-56937692165712.06,305.279094085594,361638686345685.5
1.075785635882274e-08,583407.4492388412,-58997554076152.17,305.5802695941458,371333898873153.06
1.095785635882274e-08,606418.2293321152,-61170649406015.75,305.89640926257107,381526046441855.4
1.1157856358822741e-08,630271.8963894898,-63468254357419.15,306.2281347514077,392264093688927.7
1.1357856358822741e-08,655027.0738038027,-65902944743876.99,306.5760863586019,403602365355403.06
1.1557856358822741e-08,680748.6232987236,-68488778137212.57,306.9409231912129,415601258021378.56
1.1757856358822741e-08,707508.4256346583,-71241505696322.23,307.3233233153963,428328058362284.6
1.1957856358822741e-08,735386.2781024713,-74178819130807.83,307.72398388327,441857885731307.5
1.2157856358822742e-08,764470.9287009974,-77320639360307.34,308.1436212352413,456274780115767.75
1.2357856358822742e-08,794861.2706739682,-80689454783312.7,308.58297097636245,471672960397330.56
1.2557856358822742e-08,826667.7256474986,-84310718725756.22,309.0427880252632,488158282501751.44
1.2757856358822742e-08,860013.8491374756,-88213317673039.66,309.5238466342014,505849932617967.1
1.2957856358822742e-08,895038.1989064142,-92430124391654.55,310.02694037876694,524882397400233.4
1.3157856358822742e-08,931896.5148144137,-96998653134324.44,310.552882115766,545407761188001.6
1.3357856358822742e-08,970764.268768873,-101961837942637.84,311.10250390782096,567598390090402.1
1.3557856358822743e-08,1011839.6555575726,-107368959799487.12,311.6766569132197,591650074659918.9
1.3757856358822743e-08,1055347.110281879,-113276754276709.27,312.27621123956123,617785717284934.4
1.3957856358822743e-08,1101541.456459411,-119750738672055.94,312.9020557597569,646259667933872.2
1.4157856358822743e-08,1150712.811479436,-126866806818140.78,313.55509788896245,677362833190685.8
1.4357856358822743e-08,1203192.4040302348,-134713151265818.22,314.23626332104374,711428709507733.8
1.4557856358822743e-08,1259359.4927167275,-143392587025937.56,314.94649572320264,748840523354164.0
1.4757856358822743e-08,1319649.618048336,-153025369307206.88,315.6867563874218,790039699806859.4
1.4957856358822742e-08,1384564.4734601772,-163752620758850.28,316.4580238374296,835535928799561.9
1.515785635882274e-08,1454683.7477838693,-175740512964790.38,317.26129338992223,885919156812456.0
1.535785635882274e-08,1530679.3751151601,-189185384089868.62,318.09757666883604,941873903870929.6
1.5557856358822737e-08,1613332.7328208175,-204320021918036.16,318.96790107150713,1004196394607404.6
1.5757856358822736e-08,1703555.460238426,-221421402001769.38,319.87330918562515,1073815101931920.1
1.5957856358822734e-08,1802414.7368400218,-240820248114168.34,320.81485815594476,1151815437707803.5
1.6157856358822733e-08,1911164.0687701069,-262912881697690.6,321.7936189997868,1239469493209616.0
1.635785635882273e-08,2031280.8990115537,-288175955136535.5,322.8106758704457,1338271941189881.0
1.655785635882273e-08,2164512.6948621264,-317184829110177.44,323.8671252676939,1449983471344951.2
1.6757856358822728e-08,2312933.5975045376,-350636568418996.0,324.96407519465856,1576683454764125.5
1.6957856358822727e-08,2479014.2689575762,-389378808549999.94,326.10264426044523,1720833936867106.8
1.7157856358822725e-08,2665708.276393636,-434446106745710.56,327.2839607279738,1885357562967781.5
1.7357856358822724e-08,2876559.2580593694,-487105862766449.1,328.50916150659947,2073732671972379.0
1.7557856358822722e-08,3115834.278098241,-548916510801068.4,329.7793910891964,2290109584758261.0
1.775785635882272e-08,3388690.2770005376,-621801491470597.0,331.095800433497,2539453106187253.5
1.795785635882272e-08,3701382.461878669,-708143573335028.4,332.4595457875991,2827717506328138.0
1.8157856358822718e-08,4061525.9898236333,-810905489096861.5,333.87178745967077,3162061814298078.0
1.8357856358822716e-08,4478425.553909972,-933784692763137.6,335.33368853202006,3551115232178573.5
1.8557856358822715e-08,4963491.716421995,-1081412477454372.4,336.8464135198185,4005304964579676.5
1.8757856358822713e-08,5530768.352938811,-1259610916302407.8,338.41112697491303,4537261898537806.0
1.895785635882271e-08,6197602.777489424,-1475725365072743.8,340.02899203529506,5162323532371311.0
1.915785635882271e-08,6985499.546783616,-1739055949324187.0,341.7011689209485,5899158561593758.0
1.935785635882271e-08,7921211.2973870095,-2061419027483972.2,343.4288133769293,6770543865198539.0
1.9557856358822707e-08,9038136.190768128,-2457879714875165.0,345.21307506471015,7804332652237923.0
1.9757856358822705e-08,10378112.870984256,-2947710034759372.0,347.055095902936,9034662677883984.0
1.9957856358822704e-08,11993731.92998234,-3555645292005069.0,348.9560083589405,1.0503466292383496e+16
2.0157856358822702e-08,13951319.921014898,-4313535407315026.0,350.91693369248827,1.2262360370810904e+16
2.03578563588227e-08,16334800.880166223,-5262520312931435.0,352.93898015340176,1.4375014804809094e+16
2.05578563588227e-08,19250704.992012415,-6455901935071667.0,355.0232411348759,1.6920124381629684e+16
2.0757856358822698e-08,22834679.634160686,-7962943602020890.0,357.1707932844421,1.9995141999225096e+16
2.0957856358822696e-08,27259971.431724716,-9873906076960004.0,359.38269457473046,2.372097312219387e+16
2.1157856358822695e-08,32748498.295078244,-1.2306734765983226e+16,361.6599823363154,2.8247884507424024e+16
2.1357856358822693e-08,39585329.87369979,-1.5415954340555576e+16,364.00367125510746,3.3762947458291176e+16
2.1557856358822692e-08,48137659.62236674,-1.9404517607547172e+16,366.41475133691665,4.049942089124351e+16
2.175785635882269e-08,58879703.258837365,-2.4539611841238628e+16,368.89418584196903,4.874858694082791e+16
2.195785635882269e-08,72425425.37210804,-3.1173770610518668e+16,371.44290919232003,5.887468746694642e+16
2.2157856358822687e-08,89571616.24080901,-3.9773102735699544e+16,374.06182485525795,7.133378086631269e+16
2.2357856358822686e-08,111354664.81291485,-5.095507297867666e+16,376.7518032059668,8.669755398762805e+16
2.2557856358822684e-08,139125467.8325866,-6.553910558746725e+16,379.5136793728354,1.0568339481290688e+17
2.2757856358822683e-08,174648367.2530476,-8.46144040555815e+16,382.3482510689783,1.291923716182719e+17
2.295785635882268e-08,220231934.4447637,-1.0963088433521562e+17,385.256276413657,1.5835719046141462e+17
2.315785635882268e-08,278901973.2179754,-1.4252113139951078e+17,388.23847174743656,1.9460273578080723e+17
2.3357856358822678e-08,354630495.3277146,-1.8586397852433472e+17,391.295509445042,2.3972246394139e+17
2.3557856358822677e-08,452638895.49643815,-2.4310389636565878e+17,394.428015730008,2.959747474944437e+17
2.3757856358822675e-08,579799462.834134,-3.188451555912544e+17,397.63656849534414,3.6620429597038483e+17
2.3957856358822674e-08,745167161.5514729,-4.192460728857872e+17,400.921695134524,4.539950520134989e+17
2.4157856358822672e-08,960683880.85068,-5.5254706133313536e+17,404.28387038724685,5.6386253325010906e+17
2.435785635882267e-08,1242110849.8796816,-7.297773258324547e+17,407.72351420450826,7.014955242929855e+17
2.455785635882267e-08,1610262617.8165016,-9.656997034437056e+17,411.24098963758934,8.740593951850303e+17
2.4757856358822667e-08,2092639171.599501,-1.280072415911619e+18,414.83660075567843,1.090576220947415e+18
2.4957856358822666e-08,2725583019.6704326,-1.6993317437778506e+18,418.5105905969135,1.3624004048908198e+18
2.5157856358822664e-08,3557127470.78663,-2.2588325869568412e+18,422.2631391576609,1.7038127851443812e+18
2.5357856358822663e-08,4650753501.672478,-3.0058267440100854e+18,426.09436142496025,2.132761365860615e+18
2.555785635882266e-08,6090338847.920147,-4.00341428482619e+18,430.0043054570474,2.6717830163195725e+18
2.575785635882266e-08,7986668435.690975,-5.335775059036735e+18,433.99295051693593,3.3491478958556257e+18
2.595785635882266e-08,10485985211.053007,-7.115079452672372e+18,438.06020526405797,4.2002771817581563e+18
2.6157856358822657e-08,13781201305.977592,-9.490595241976017e+18,442.2059060089525,5.269495109999759e+18
2.6357856358822655e-08,18126569327.37588,-1.2660657221888922e+19,446.4298150360152,6.61218860892895e+18
2.6557856358822654e-08,23856842226.28515,-1.68883559857468e+19,450.73161899928743,8.297462149579298e+18
2.6757856358822652e-08,31412239731.282574,-2.2522041131641758e+19,455.1109273962427,1.041139209487818e+19
2.695785635882265e-08,41370904296.13234,-3.0022033350242365e+19,459.56727112451495,1.3061004044577268e+19
2.715785635882265e-08,54490987456.06435,-3.999531232940172e+19,464.1001011264084,1.6379118673206725e+19
2.7357856358822648e-08,71765079336.61476,-5.3240408317113434e+19,468.70878712600677,2.0530236551890915e+19
2.7557856358822646e-08,94490404568.24731,-7.080529186181436e+19,473.39261646363224,2.5717660600620507e+19
2.7757856358822645e-08,124359086044.21478,-9.406174831075231e+19,478.1507930322379,3.219208624887122e+19
2.7957856358822643e-08,163573857493.76648,-1.2480056292017178e+20,482.98243632032313,4.026192412612734e+19
2.8157856358822642e-08,214995925397.33563,-1.6535285276596093e+20,487.88658056574525,5.030565809651621e+19
2.835785635882264e-08,282333284236.502,-2.1874408855109724e+20,492.86217402472226,6.278658250418967e+19
2.855785635882264e-08,370379725636.5335,-2.8888877947649078e+20,497.90807836015324,7.82703062653938e+19
2.8757856358822637e-08,485317105967.68634,-3.808354744033622e+20,503.02306815323703,9.74454574042764e+19
2.8957856358822636e-08,635096207510.6638,-5.010736885132967e+20,508.2058305421851,1.2114806904655843e+20
2.9157856358822634e-08,829914808431.4308,-6.579166201078675e+20,513.4549649916283,1.5039017578473374e+20
2.9357856358822633e-08,1082815432421.9915,-8.619760963940994e+20,518.7689831961544,1.8639319647554486e+20
2.955785635882263e-08,1410429746942.3408,-1.1267490929249857e+21,524.1463091211266,2.3062672440954638e+20
2.975785635882263e-08,1833901785424.5713,-1.4693384125950504e+21,529.5852791837931,2.848533865964299e+20
2.995785635882263e-08,2380028145467.8594,-1.9113336784967516e+21,535.0841425773707,3.5118046853572054e+20
3.015785635882263e-08,3082660116334.7666,-2.479882667036098e+21,540.6410617405944,4.321190269021857e+20
3.035785635882263e-08,3984420357567.7344,-3.208987141286011e+21,546.2541129749105,5.3065122741531024e+20
3.0557856358822633e-08,5138795312212.873,-4.14106167520858e+21,551.921287211243,6.503066459015533e+20
3.0757856358822635e-08,6612673996652.078,-5.328798397037499e+21,557.6404909279486,7.952482541400466e+20
3.095785635882264e-08,8489414139722.573,-6.837385005942679e+21,563.4095472212782,9.703687753445168e+20
3.115785635882264e-08,10872527787056.53,-8.747127679884484e+21,569.2261970293472,1.1813980338941689e+21
3.135785635882264e-08,13890090341140.178,-1.1156534410895499e+22,575.0881005102825,1.4350218370832563e+21
3.155785635882264e-08,17699989423790.53,-1.4185917659546454e+22,580.9928385748993,1.739012810310676e+21
3.1757856358822644e-08,22496142721042.42,-1.7981577762310162e+22,586.9379145738725,2.102373458697173e+21
3.1957856358822646e-08,28515826835678.727,-2.2720629971990887e+22,592.9207561390599,2.5354915454793993e+21
3.215785635882265e-08,36048271799324.24,-2.8616538053103067e+22,598.9387171782404,3.0503076591595537e+21
3.235785635882265e-08,45444687885049.84,-3.5925415660530835e+22,604.9890800221566,3.660494586488848e+21
3.255785635882265e-08,57129902243681.305,-4.495315295711238e+22,611.0690577224113,4.3816478169885494e+21
3.275785635882265e-08,71615792124203.3,-5.6063419726760325e+22,617.1757964983316,5.231486177878716e+21
3.2957856358822655e-08,89516708426903.89,-6.9686587275894325e+22,623.3063783305795,6.230061238064932e+21
3.3157856358822657e-08,111567081703703.92,-8.632957455081074e+22,629.4578236988643,7.399973104779934e+21
3.335785635882266e-08,138641430707553.12,-1.0658674966211771e+23,635.6270944607421,8.76659264284376e+21
3.355785635882266e-08,171776934381640.88,-1.311516585645615e+23,641.8110968680726,1.0358285244403554e+22
3.375785635882266e-08,212198777796693.12,-1.6082977624759875e+23,648.0066847173416,1.2206632453809195e+22
3.3957856358822664e-08,261348432828639.28,-1.9655211105858825e+23,654.2106626296545,1.4346650711894914e+22
3.4157856358822666e-08,320915023763112.9,-2.3938960600181985e+23,660.4197894558083,1.6817001449894646e+22
3.435785635882267e-08,392869897309963.44,-2.905682178079854e+23,666.6307818014802,1.9660188441833894e+22
3.455785635882267e-08,479504479567732.2,-3.5148451854021904e+23,672.8403176672185,2.2922737611536664e+22
3.475785635882267e-08,583471456927966.0,-4.2372162432153644e+23,679.0450401975022,2.6655354073856587e+22
3.495785635882267e-08,707829263422142.0,-5.090652130758379e+23,685.2415615328338,3.091305083959272e+22
3.5157856358822675e-08,856089793356747.1,-6.095193487564649e+23,691.4264667584256,3.5755243318784427e+22
3.5357856358822676e-08,1032269185203319.2,-7.273217842357637e+23,697.5963179427713,4.124580352627657e+22
3.555785635882268e-08,1240941440772220.0,-8.649583698195438e+23,703.7476582590043,4.7453067736731775e+22
3.575785635882268e-08,1487294553103252.0,-1.0251761503379335e+24,709.8770161816885,5.444979126369238e+22
3.595785635882268e-08,1777188717916103.8,-1.210994692175728e+24,715.9809097513759,6.231304405849955e+22
3.6157856358822684e-08,2117216097823066.8,-1.425715143778281e+24,722.0558508989823,7.11240409490969e+22
3.6357856358822685e-08,2514761497056657.5,-1.6729265005377416e+24,728.0983498218199,8.096790057486433e+22
3.655785635882269e-08,2978063188755703.5,-1.956508519042584e+24,734.1049194028445,9.193332743010184e+22
3.675785635882269e-08,3516273018753205.0,-2.28063070804154e+24,740.0720796644856,1.0411221191388725e+23
3.695785635882269e-08,4139514791508201.5,-2.6497468157577267e+24,745.9963622482654,1.1759914390581619e+23
3.715785635882269e-08,4858939827834407.0,-3.0685842370424346e+24,751.8743149112207,1.3249083615346456e+23
3.7357856358822694e-08,5686778473230465.0,-3.542127780938047e+24,757.7025060299821,1.488854546760738e+23
3.7557856358822696e-08,6636386233047965.0,-4.0755972711631066e+24,763.4775291033262,1.6688185446754925e+23
3.77578563588227e-08,7722283119869886.0,-4.6744185004132965e+24,769.1960072438746,1.865787200273977e+23
3.79578563588227e-08,8960184723003801.0,-5.344187125669415e+24,774.8545976495433,2.080736116670126e+23
3.81578563588227e-08,1.036702345383836e+16,-6.090625177245448e+24,780.4499960453934,2.314619201357082e+23
3.83578563588227e-08,1.1960958388059812e+16,-6.919529960190046e+24,785.9789410864454,2.5683573388850697e+23
3.8557856358822705e-08,1.376137212058058e+16,-7.83671525367569e+24,791.4382187121273,2.8428262527534226e+23
