t(s),Adsorbed H on surface 1 (H m-2),solute flux surface 1 (H m-2 s-1),Total T surface 1 (K),0 value at [0] (H m-3)
1e-06,347833536.11132795,-66082432649414.95,300.1931064472775,1332284497956241.0
2.05e-06,1328676200.4397624,-533492998055008.8,300.4967648059436,3550116075188824.0
3.1525e-06,2858222561.537535,-929686231840824.8,300.89452991809134,5218940699384783.0
4.310125e-06,4958246871.42522,-1307921919491862.8,301.3805494093115,6739886783747774.0
5.52563125e-06,7697276597.5185375,-1697051458576025.8,301.9528517387731,8250814875589430.0
6.8019128125e-06,11182891780.647781,-2118028831457848.2,302.61136392698126,9833908212651954.0
8.142008453125e-06,15564982986.114616,-2590327093894746.5,303.3570990069557,1.155448670195564e+16
9.54910887578125e-06,21045281995.103012,-3135194431504023.5,304.1917516798615,1.347619635807156e+16
1.1026564319570314e-05,27892744010.461708,-3778057001634230.5,305.1174681415041,1.566932151621201e+16
1.2577892535548829e-05,36466071406.2293,-4550958078422304.0,306.1367003897149,1.8217224083069076e+16
1.4206787162326272e-05,47245950327.42668,-5495535643071034.0,307.2521052235871,2.122290041158223e+16
1.5917126520442588e-05,60881064478.03159,-6666983879811095.0,308.46646832907857,2.481678647001156e+16
1.771298284646472e-05,78254036663.73828,-8139534167148138.0,309.7826430091685,2.9166772636459252e+16
1.9598631988787957e-05,100576539125.67555,-1.0014190695305198e+16,311.2034976733962,3.4491513411604404e+16
2.1578563588227356e-05,129527488341.23492,-1.2429780812526964e+16,312.73186864713216,4.107843321791002e+16
2.3657491767638723e-05,167455382812.83112,-1.5578879214595632e+16,314.3705162654982,4.930833610830182e+16
2.584036635602066e-05,217676830648.28033,-1.9730920985149796e+16,316.12208307451715,5.968927198554966e+16
2.8132384673821694e-05,284920309911.90594,-2.526596093180963e+16,317.98905351747453,7.290338038961995e+16
3.053900390751278e-05,375990617625.78955,-3.272426459251944e+16,319.973714862367,8.987195358138312e+16
3.306595410288842e-05,500770679984.59094,-4.28795331771716e+16,322.07811939473476,1.1184611806309824e+17
3.571925180803284e-05,673741944112.0552,-5.68475321792241e+16,324.3040480994542,1.4053358849390355e+17
3.850521439843448e-05,916305960926.686,-7.624791186040288e+16,326.6529762060116,1.7827626518386602e+17
4.143047511835621e-05,1260349409230.6072,-1.034461368422422e+17,329.1260410896891,2.282995334792296e+17
4.4501998874274025e-05,1753746613218.8977,-1.4191627840604515e+17,331.7240131147133,2.950626808930712e+17
4.772709881798773e-05,2468891209769.6836,-1.967863618576662e+17,334.4472700775692,3.8475183492987136e+17
5.111345375888712e-05,3515976704750.0986,-2.7565957452146637e+17,337.29577596277704,5.059735424669018e+17
5.4669126446831475e-05,5063737507703.076,-3.8985221924623936e+17,340.26906475792026,6.707303069397147e+17
5.8402582769173055e-05,7371926686279.078,-5.562606207889426e+17,343.36623008896487,8.957913873571756e+17
6.232271190763171e-05,10842270462703.668,-8.001755809706036e+17,346.5859214243195,1.2046159631652265e+18
6.64388475030133e-05,16098508990913.664,-1.1595207334521503e+18,349.9263475579357,1.630045238521578e+18
7.076078987816397e-05,24112189404844.387,-1.6912234067473759e+18,353.3852880100826,2.218059974279944e+18
7.529882937207217e-05,36400315228486.64,-2.4807655910977613e+18,356.9601128764328,3.0330059062624256e+18
8.006377084067578e-05,55335584032254.95,-3.6564519940882335e+18,360.6478115118591,4.164827466699864e+18
8.506695938270958e-05,84631817186107.92,-5.410500708660837e+18,364.44503025053064,5.738901111158916e+18
9.032030735184505e-05,130103788852349.34,-8.030629204493943e+18,368.3481191411359,7.929873013395168e+18
9.583632271943731e-05,200848291802998.28,-1.1945798299461573e+19,372.35318741782936,1.097979303005975e+19
0.00010162813885540918,311072856439717.5,-1.7792958549514105e+19,376.45616713911994,1.5222626315463313e+19
0.00010770954579817965,482906167321519.9,-2.6512388450335076e+19,380.65288411624954,2.111609357635422e+19
0.00011409502308808864,750673641465691.6,-3.948101696402298e+19,384.939134933761,2.9281665919172387e+19
0.00012079977424249307,1167307372102756.0,-5.869243283725219e+19,389.3107685469742,4.055167493256719e+19
0.00012783976295461773,1813747580755312.8,-8.698589002367495e+19,393.76377064580043,5.601806237901519e+19
0.00013523175110234862,2812273847418193.5,-1.2830701069130374e+20,398.2943487145731,7.706799353130518e+19
0.00014299333865746606,4344426597978125.5,-1.8793842054307948e+20,402.8990155206747,1.0537507830832664e+20
0.00015114300559033938,6673103578930502.0,-2.7256008135824828e+20,407.5746686387872,1.427928778349916e+20
0.00015970015586985636,1.0166106349369402e+16,-3.8990795801716045e+20,412.31866359155566,1.9108595681602585e+20
0.0001686851636633492,1.5315226776401364e+16,-5.477991804744155e+20,417.12887826640804,2.5147518691655107e+20
0.00017811942184651667,2.274340867871423e+16,-7.52577404558225e+20,422.00376646433847,3.241180151995672e+20
0.00018802539293884252,3.3196938862350588e+16,-1.0076554858339908e+21,426.9423987577965,4.078431086301128e+20
0.00019802539293884252,4.684936809758457e+16,-1.3011500278684957e+21,431.7572545280615,4.969431991091899e+20
0.00020802539293884252,6.394459070525129e+16,-1.6248277439971774e+21,436.41378127395006,5.880778814665196e+20
0.00021802539293884252,8.478505716281318e+16,-1.9739939596978042e+21,440.9235839383182,6.79671880823949e+20
0.00022802539293884251,1.0965264348628662e+17,-2.3459392292114517e+21,445.297387991882,7.71108094988771e+20
0.00023802539293884251,1.38824916170849e+17,-2.739567127285096e+21,449.54504128293917,8.623874130786381e+20
0.0002480253929388425,1.7258370267644157e+17,-3.154638576671633e+21,453.67555128299364,9.537728439489486e+20
0.00025802539293884254,2.1114196000240346e+17,-3.5843150154695065e+21,457.65035079251214,1.0440606201568166e+21
0.00026802539293884257,2.54718670121511e+17,-4.0286496540025186e+21,461.49506502624394,1.1336341383295076e+21
0.0002780253929388426,3.035525308034513e+17,-4.4890424907445394e+21,465.2307821097576,1.2231467621088868e+21
0.0002880253929388426,3.5789292967784166e+17,-4.966122575433346e+21,468.8691561115096,1.313014722792392e+21
0.00029802539293884264,4.179950703986658e+17,-5.460119729404062e+21,472.4187963923016,1.4035143727758587e+21
0.00030802539293884267,4.8411693935854285e+17,-5.971052323144217e+21,475.88662863619214,1.4948424102157474e+21
0.0003180253929388427,5.565171974221867e+17,-6.498829727241731e+21,479.2784613744612,1.5871485937966103e+21
0.0003280253929388427,6.354534960083602e+17,-7.043305946259359e+21,482.59928947004556,1.6805527957206225e+21
0.00033802539293884275,7.21180960989856e+17,-7.604307442332586e+21,485.85348112347026,1.7751540440544948e+21
0.0003480253929388428,8.139507176466278e+17,-8.181647441274618e+21,489.0449037824057,1.8710355585478623e+21
0.0003580253929388428,9.140083951636438e+17,-8.775132723697808e+21,492.17701417942135,1.9682677426433984e+21
0.00036802539293884283,1.0215925840560582e+18,-9.384565875977881e+21,495.2529255581267,2.0669101302078282e+21
0.00037802539293884285,1.1369332417901812e+18,-1.0009744647367256e+22,498.2754595120236,2.1670128515441094e+21
0.0003880253929388429,1.2602500581830272e+18,-1.0650459480617396e+22,501.2471869716034,2.2686179788915527e+21
0.0003980253929388429,1.3917508056175488e+18,-1.1306490004633563e+22,504.1704612640454,2.3717610019746396e+21
0.00040802539293884293,1.5316297104669215e+18,-1.1977601117015494e+22,507.04744521707306,2.4764726146000203e+21
0.00041802539293884296,1.6800658913127396e+18,-1.266353916704557e+22,509.8801336832804,2.582780941084398e+21
0.000428025392938843,1.8372219162057667e+18,-1.3364028648398908e+22,512.6703724756661,2.6907142873378193e+21
0.000438025392938843,2.0032425348931205e+18,-1.4078769712993994e+22,515.419874443027,2.800304461703164e+21
0.00044802539293884304,2.178253642252067e+18,-1.4807436722641555e+22,518.1302332341224,2.9115906745387304e+21
0.00045802539293884306,2.3623615258973215e+18,-1.5549677963245966e+22,520.802935172267,3.0246239931949536e+21
0.0004680253929388431,2.555652444019806e+18,-1.6305116557310092e+22,523.4393695672094,3.139472301206892e+21
0.0004780253929388431,2.7581925691942487e+18,-1.7073352529245104e+22,526.0408377226886,3.256225688959259e+21
0.00048802539293884314,2.9700283206314563e+18,-1.7853965906645185e+22,528.608560847704,3.3750021891514067e+21
0.0004980253929388432,3.191187091807027e+18,-1.864652067768948e+22,531.1436870368375,3.495953764818709e+21
0.0005080253929388432,3.42167836350684e+18,-1.9450569379143114e+22,533.6472974576506,3.619272462567422e+21
0.0005180253929388432,3.66149517505743e+18,-2.0265658054284327e+22,536.1204118561817,3.7451966584174915e+21
0.0005280253929388432,3.9106159099605903e+18,-2.109133130352145e+22,538.5639934742959,3.8740173495344683e+21
0.0005380253929388433,4.1690063373381514e+18,-2.192713714774712e+22,540.9789534566389,4.0060844812216335e+21
0.0005480253929388433,4.4366218384292654e+18,-2.2772631436600583e+22,543.3661548122532,4.1418133445999555e+21
0.0005580253929388433,4.713409738605038e+18,-2.3627381560336273e+22,545.726415987279,4.2816911359537374e+21
0.0005680253929388434,4.999311660411727e+18,-2.4490969258181435e+22,548.0605140950103,4.4262838325811583e+21
0.0005780253929388434,5.294265812237856e+18,-2.536299235949e+22,550.3691878437061,4.576243612682455e+21
0.0005880253929388434,5.598209130218157e+18,-2.6243065340602985e+22,552.6531401976476,4.732317128487286e+21
0.0005980253929388434,5.911079197530539e+18,-2.713081862372114e+22,554.9130408004286,4.895355033656543e+21
0.0006080253929388435,6.23281587472353e+18,-2.802589658560605e+22,557.1495281872783,5.066323271756225e+21
0.0006180253929388435,6.563362586270113e+18,-2.8927954273130017e+22,559.3632118081194,5.246316756279448e+21
0.0006280253929388435,6.902667221248578e+18,-2.9836652842236003e+22,561.5546738818737,5.436576222755919e+21
0.0006380253929388435,7.250682618808975e+18,-3.0751653737154013e+22,563.724471098862,5.638509220117587e+21
0.0006480253929388436,7.607366620808857e+18,-3.1672611608683233e+22,565.8731361866724,5.853716448218852e+21
0.0006580253929388436,7.972681683564875e+18,-3.2599165927458276e+22,568.0011793528845,6.08402496348501e+21
0.0006680253929388436,8.346594046943099e+18,-3.35309311759244e+22,570.1090896160363,6.331530197386029e+21
0.0006780253929388436,8.729072460882031e+18,-3.4467485396853917e+22,572.197336036205,6.598649309376551e+21
0.0006880253929388437,9.120086465645806e+18,-3.5408356721447596e+22,574.2663688536846,6.888189193191633e+21
0.0006980253929388437,9.519604211238228e+18,-3.6353007288220528e+22,576.3166205445776,7.203433571896624e+21
0.0007080253929388437,9.927589781546301e+18,-3.7300813666030428e+22,578.3485068004978,7.548255197315769e+21
0.0007180253929388437,1.0343999957164646e+19,-3.825104247786838e+22,580.3624274389755,7.927261432666024e+21
0.0007280253929388438,1.0768780303126432e+19,-3.920281932866233e+22,582.3587672509408,8.34598477768326e+21
0.0007380253929388438,1.1201860396729164e+19,-4.015508827714927e+22,584.3378967899014,8.811134711998374e+21
0.0007480253929388438,1.1643147904129597e+19,-4.110655781852167e+22,586.3001731082146,9.330934405111971e+21
0.0007580253929388439,1.209252105112598e+19,-4.205562741979564e+22,588.2459404448097,9.915576683180369e+21
0.0007680253929388439,1.2549818775619262e+19,-4.300028568934645e+22,590.1755308678553,1.057785029588563e+22
0.0007780253929388439,1.3014827426760397e+19,-4.393796662577833e+22,592.089264876118,1.1334013533698243e+22
0.0007880253929388439,1.3487262154385908e+19,-4.486534300547548e+22,593.9874519625532,1.2205033536687748e+22
0.000798025392938844,1.3966739838473867e+19,-4.577802404455285e+22,595.8703911427586,1.3218376186067455e+22
0.000808025392938844,1.445273794007927e+19,-4.667010510377917e+22,597.7383714504628,1.4410639851371717e+22
0.000818025392938844,1.4944528548120697e+19,-4.75334861055924e+22,599.5916724037919,1.5831502383373865e+22
0.000828025392938844,1.5441065132050977e+19,-4.8356828410912874e+22,601.4305644432519,1.7549726153227456e+22
0.0008380253929388441,1.594076848711318e+19,-4.912396619124456e+22,603.2553093437313,1.9662328843219054e+22
0.0008480253929388441,1.6441062732512453e+19,-4.981162614819746e+22,605.0661606031148,2.230810784959714e+22
0.0008580253929388441,1.6937167770594394e+19,-5.03870720755478e+22,606.8633638080921,2.5683880377877103e+22
0.0008680253929388441,1.7418296588246385e+19,-5.081158541117665e+22,608.6471569796568,3.0039833356548142e+22
0.0008780253929388442,1.7855417900866871e+19,-5.108350930500769e+22,610.4177708990926,3.55106793736373e+22
0.0008880253929388442,1.8185238464298887e+19,-5.138923813398252e+22,612.1754294159917,4.146367171697521e+22
0.0008980253929388442,1.8365542650243772e+19,-5.207291842452541e+22,613.9203497397491,4.645573503275043e+22
0.0009080253929388442,1.8438463262015017e+19,-5.319007283529021e+22,615.6527427149647,4.992833724061307e+22
0.0009180253929388443,1.8461347189367063e+19,-5.455680748199022e+22,617.372813082644,5.22579552633551e+22
0.0009280253929388443,1.846480246729851e+19,-5.6017276296290825e+22,619.0807597274224,5.387452754632273e+22
0.0009380253929388443,1.846087568227197e+19,-5.749185180126202e+22,620.7767759120288,5.504101224114692e+22
0.0009480253929388443,1.845388921192903e+19,-5.894689004525287e+22,622.4610494998718,5.590600591941226e+22
0.0009580253929388444,1.8445415519377246e+19,-6.037047318747108e+22,624.1337631662666,5.655811709531267e+22
0.0009680253929388444,1.843608217562461e+19,-6.176025725560541e+22,625.7950945988398,5.705407178323404e+22
0.0009780253929388444,1.8426180365218361e+19,-6.311791682425309e+22,627.4452166885312,5.743222086364931e+22
0.0009880253929388445,1.8415868942611659e+19,-6.444662193605304e+22,629.0842977109261,5.771949029040019e+22
0.0009980253929388445,1.8405246407981068e+19,-6.574989394882024e+22,630.7125014987307,5.793530829419596e+22
0.0010080253929388445,1.8394379108285053e+19,-6.7031102776083955e+22,632.3299876061241,5.809400375310261e+22
0.0010180253929388445,1.8383314021270583e+19,-6.8293269094602795e+22,633.9369114654966,5.820634652375107e+22
0.0010280253929388446,1.8372085470515298e+19,-6.953901099617677e+22,635.5334245366046,5.828056963556119e+22
0.0010380253929388446,1.8360719081288507e+19,-7.077055631139172e+22,637.1196744487918,5.832306388597325e+22
0.0010480253929388446,1.8349234294797756e+19,-7.198978167778269e+22,638.6958051369107,5.833885921846037e+22
0.0010580253929388446,1.8337646045311664e+19,-7.319825944987468e+22,640.2619569708543,5.833196437549751e+22
0.0010680253929388447,1.832596591610815e+19,-7.439730371697184e+22,641.8182668794375,5.830561063581349e+22
0.0010780253929388447,1.8314202956037415e+19,-7.558801181094257e+22,643.3648684686062,5.826242952757005e+22
0.0010880253929388447,1.8302364268082221e+19,-7.677130019532442e+22,644.9018921347454,5.8204584341279196e+22
0.0010980253929388447,1.8290455441018708e+19,-7.794793478885603e+22,646.4294651725983,5.81338687963459e+22
0.0011080253929388448,1.8278480870905108e+19,-7.911855626491852e+22,647.9477118789287,5.805178200231334e+22
0.0011180253929388448,1.8266444003824181e+19,-8.028370101704317e+22,649.4567536514744,5.795958606743569e+22
0.0011280253929388448,1.8254347521433973e+19,-8.144381848053047e+22,650.9567090839133,5.7858350838838475e+22
0.0011380253929388448,1.824219348437694e+19,-8.259928543168946e+22,652.4476940567984,5.774898898372912e+22
0.0011480253929388449,1.8229983444226226e+19,-8.375041779959418e+22,653.9298218247005,5.763228374060835e+22
0.001158025392938845,1.8217718531659954e+19,-8.489748043770022e+22,655.4032030995819,5.7508911051222125e+22
0.001168025392938845,1.8205399526476421e+19,-8.604069522585078e+22,656.8679461311731,5.7379457345394886e+22
0.001178025392938845,1.8193026913600485e+19,-8.718024780283107e+22,658.3241567837348,5.724443393265225e+22
0.001188025392938845,1.8180600928181936e+19,-8.831629317662307e+22,659.7719386099462,5.710428872544078e+22
0.001198025392938845,1.816812159212869e+19,-8.944896041160886e+22,661.2113929218027,5.695941584765914e+22
0.001208025392938845,1.8155588743861055e+19,-9.057835655534091e+22,662.6426188587355,5.681016355603622e+22
0.001218025392938845,1.8143002062661118e+19,-9.170456993704384e+22,664.0657134530691,5.665684080665968e+22
0.001228025392938845,1.8130361088682854e+19,-9.282767294553222e+22,665.4807716929024,5.649972272683962e+22
0.0012380253929388451,1.8117665239455058e+19,-9.394772437518772e+22,666.8878865827744,5.6339055197720974e+22
0.0012480253929388451,1.8104913823532814e+19,-9.506477141099907e+22,668.2871492017454,5.617505870984901e+22
0.0012580253929388452,1.809210605181531e+19,-9.617885131330308e+22,669.6786487595716,5.600793162221894e+22
0.0012680253929388452,1.8079241046943857e+19,-9.728999284983982e+22,671.0624726505714,5.583785292847781e+22
0.0012780253929388452,1.806631785111089e+19,-9.839821751613176e+22,672.4387065055502,5.566498461470795e+22
0.0012880253929388452,1.805333543254613e+19,-9.950354057791073e+22,673.8074342419958,5.5489473677122504e+22
0.0012980253929388453,1.8040292690896724e+19,-1.0060597196210566e+23,675.168738112114,5.5311453854713824e+22
0.0013080253929388453,1.8027188461675766e+19,-1.0170551702111815e+23,676.5226987494216,5.5131047123070845e+22
0.0013180253929388453,1.8014021519922682e+19,-1.0280217718910205e+23,677.8693952137147,5.494836498650182e+22
0.0013280253929388453,1.8000790583194341e+19,-1.0389595054493297e+23,679.2089050338919,5.476350959877763e+22
0.0013380253929388454,1.7987494313980903e+19,-1.049868322990627e+23,680.5413042500994,5.457657473962197e+22
0.0013480253929388454,1.7974131321628623e+19,-1.0607481521191506e+23,681.8666674537745,5.438764666671036e+22
0.0013580253929388454,1.7960700163834601e+19,-1.071598899556182e+23,683.1850678264751,5.419680486193149e+22
0.0013680253929388455,1.794719934776806e+19,-1.0824204542716782e+23,684.4965771775115,5.400412268681892e+22
0.0013780253929388455,1.7933627330864394e+19,-1.093212690190843e+23,685.8012659800992,5.380966795942113e+22
0.0013880253929388455,1.791998252132938e+19,-1.1039754685437898e+23,687.0992034064323,5.361350346362179e+22
0.0013980253929388455,1.7906263278385562e+19,-1.1147086399018538e+23,688.3904573614759,5.341568739968019e+22
0.0014080253929388456,1.7892467912287005e+19,-1.1254120459470666e+23,689.6750945156605,5.321627378381265e+22
0.0014180253929388456,1.7878594684124137e+19,-1.1360855210128653e+23,690.9531803365758,5.301531280341132e+22
0.0014280253929388456,1.786464180543739e+19,-1.1467288934219534e+23,692.2247791195081,5.281285113330596e+22
0.0014380253929388456,1.7850607437654534e+19,-1.1573419866516699e+23,693.4899540169866,5.260893221800916e+22
0.0014480253929388457,1.7836489691363883e+19,-1.1679246203525239e+23,694.7487670674745,5.24035965241671e+22
0.0014580253929388457,1.7822286625433805e+19,-1.1784766112355243e+23,696.0012792230843,5.2196881766630914e+22
0.0014680253929388457,1.7807996245986892e+19,-1.1889977738447057e+23,697.2475503763307,5.198882311122069e+22
0.0014780253929388457,1.7793616505234842e+19,-1.1994879212355237e+23,698.487639386166,5.177945335705977e+22
0.0014880253929388458,1.777914530017933e+19,-1.2099468655671903e+23,699.7216041031654,5.156880310064066e+22
0.0014980253929388458,1.7764580471182959e+19,-1.2203744186170327e+23,700.949501393786,5.1356900883563436e+22
0.0015080253929388458,1.7749919800412035e+19,-1.2307703922371994e+23,702.1713871641157,5.114377332606894e+22
0.0015180253929388458,1.7735161010153882e+19,-1.241134598746604e+23,703.3873163825969,5.092944524741655e+22
0.0015280253929388459,1.7720301761008022e+19,-1.2514668512832301e+23,704.5973431023815,5.071393977504535e+22
0.001538025392938846,1.7705339649952143e+19,-1.2617669641066828e+23,705.8015204827767,5.0497278443185504e+22
0.001548025392938846,1.7690272208281537e+19,-1.2720347528647657e+23,706.9999008100948,5.02794812822512e+22
0.001558025392938846,1.7675096899420264e+19,-1.2822700348274943e+23,708.1925355178896,5.0060566899895824e+22
0.001568025392938846,1.7659811116601756e+19,-1.2924726290929193e+23,709.3794752066118,4.9840552554560695e+22
