t(s),Adsorbed H on surface 1 (H m-2),solute flux surface 1 (H m-2 s-1),Total T surface 1 (K),0 value at [0] (H m-3)
1e-06,374899020.4287224,-71297910278385.08,300.77234250386664,1414729756558128.0
2.05e-06,1573996722.7791076,-656757272192307.9,301.9870537915407,4177769744276756.0
3.1525e-06,3696436636.824787,-1285983938114278.0,303.5783933227889,6764563444402726.0
4.310125e-06,7084379744.743865,-2086361444826397.8,305.5230178601928,9795308367544526.0
5.52563125e-06,12362544821.57388,-3211144737870150.0,307.8131461813119,1.3735050608499282e+16
6.8019128125e-06,20618362414.75251,-4897641725761385.0,310.44861138748956,1.9191969568818976e+16
8.142008453125e-06,33759999576.651443,-7550712694988268.0,313.4336122340973,2.70956035789276e+16
9.54910887578125e-06,55208976052.338715,-1.189341783086119e+16,316.7750981330896,3.8953311681769384e+16
1.1026564319570314e-05,91254720476.48949,-1.925559418194323e+16,320.4805404569775,5.728126318502445e+16
1.2577892535548829e-05,153771227609.79343,-3.2151169998976484e+16,324.5608470484524,8.638214889055707e+16
1.4206787162326272e-05,265762292551.5552,-5.544186959565947e+16,329.02707697305345,1.3374200021616416e+17
1.5917126520442588e-05,472913726069.0287,-9.873495070285614e+16,333.89062345994915,2.125984462074942e+17
1.771298284646472e-05,868109618651.8,-1.813984851676175e+17,339.1631785528519,3.4670919324942406e+17
1.9598631988787957e-05,1644343790294.4497,-3.431952615285918e+17,344.8565348871453,5.792851919098682e+17
2.1578563588227356e-05,3210638543367.544,-6.670967591852568e+17,350.98239969831326,9.898522706200699e+17
2.3657491767638723e-05,6449311170381.435,-1.3287043091301804e+18,357.5522212823503,1.7262620946922788e+18
2.584036635602066e-05,13293117021998.533,-2.7041081314417224e+18,364.57702388030447,3.065700931623407e+18
2.8132384673821694e-05,28030699040601.164,-5.60637851266473e+18,372.06724842634344,5.531102082254051e+18
3.053900390751278e-05,60277318459696.42,-1.1805666649961142e+19,380.03259803145875,1.0113463045782438e+19
3.306595410288842e-05,131753887460204.5,-2.5171178725533245e+19,388.48188815129396,1.8694148467633873e+19
3.571925180803284e-05,291748132957510.3,-5.416632001278248e+19,397.4229021877153,3.4840832136081543e+19
3.850521439843448e-05,652178224780698.6,-1.1723276897031017e+20,406.8622538845998,6.528032046022217e+19
4.143047511835621e-05,1465963742039560.0,-2.5410252590973655e+20,416.8052583569754,1.2251825360169045e+20
4.4501998874274025e-05,3296559360541029.0,-5.481965168793831e+20,427.25581397532164,2.290778453179653e+20
4.772709881798773e-05,7359198655231339.0,-1.1651528190158994e+21,438.21629763385073,4.22758355078474e+20
5.111345375888712e-05,1.6109422504423556e+16,-2.3981176742820273e+21,449.6874761711263,7.579308408555046e+20
5.4669126446831475e-05,3.3987308633466284e+16,-4.666584121476218e+21,461.66843688241863,1.2910928390427396e+21
5.8402582769173055e-05,6.794824908281931e+16,-8.405364622223585e+21,474.15654015744474,2.0496028903843965e+21
6.232271190763171e-05,1.2766904320693282e+17,-1.3943863223507445e+22,487.14739728137243,3.021639301130284e+21
6.64388475030133e-05,2.2608712736100333e+17,-2.1569536563867327e+22,500.63487633470857,4.191977972719526e+21
7.076078987816397e-05,3.8072048111938624e+17,-3.167626067026816e+22,514.6111389015301,5.574323353955117e+21
7.529882937207217e-05,6.153349192671764e+17,-4.479219234237299e+22,529.066709928849,7.207268227490016e+21
8.006377084067578e-05,9.61387766463323e+17,-6.1531311660991034e+22,543.990582559187,9.139828900443162e+21
8.506695938270958e-05,1.458717540535734e+18,-8.256032927987934e+22,559.3703590750877,1.1424054256596651e+22
9.032030735184505e-05,2.1546391896590707e+18,-1.0856443352097484e+23,575.1924282467777,1.4113157350032732e+22
9.583632271943731e-05,3.100806533591697e+18,-1.4018140229051567e+23,591.4421783699255,1.7274516781814176e+22
0.00010162813885540918,4.3488552343587814e+18,-1.7792536784817814e+23,608.1042441375189,2.104739023735889e+22
0.00010770954579817965,5.948092001524646e+18,-2.2215065601517758e+23,625.1627842383789,2.579128138700915e+22
0.00011409502308808864,7.947857729849133e+18,-2.7305187517084054e+23,642.6017852575721,3.2414671752949433e+22
0.00012079977424249307,1.0400813857766877e+19,-3.305528185416772e+23,660.4053861265292,4.3252765292295426e+22
0.00012783976295461773,1.3350614028093608e+19,-3.935940133017481e+23,678.5582161001711,6.558803837026636e+22
0.00013523175110234862,1.6656791848989518e+19,-4.558153387795916e+23,697.0457381013168,1.334473768440723e+23
0.00014299333865746606,1.8036433537792379e+19,-5.239911918403082e+23,715.8545883512344,2.368345046448823e+23
0.00015038532680519695,1.80701034231774e+19,-6.130578544250626e+23,733.2410570566668,2.6503918722349012e+23
0.0001581469143603144,1.7938073234968375e+19,-7.086832016237609e+23,750.9498086517692,2.6567820874054863e+23
0.0001662965812931877,1.7765853538328551e+19,-8.0611534075347e+23,768.9755387223985,2.5749769839431033e+23
0.0001748537315727047,1.7558421483391504e+19,-9.057645400488199e+23,787.313894149267,2.4495784405637863e+23
0.00018383873936619752,1.7304142725211318e+19,-1.0079661805998872e+24,805.9619411257969,2.2918224734355474e+23
0.000193272997549365,1.6979340189464005e+19,-1.1126801001665542e+24,824.9184187094277,2.1027937458918933e+23
0.00020317896864169085,1.6536758169039073e+19,-1.2196647434587214e+24,844.1839076928838,1.8778731731478756e+23
0.00021317896864169085,1.5904083499603065e+19,-1.3244768150914014e+24,863.0269693295265,1.6186375435267068e+23
0.00022317896864169085,1.4931213138125388e+19,-1.4258784901329946e+24,881.3078562160925,1.3282475807614744e+23
0.00023317896864169085,1.3499880302278613e+19,-1.5230446254927138e+24,899.066728348528,1.0480912206134356e+23
0.00024317896864169085,1.1839339475464522e+19,-1.615297822660001e+24,916.3405562575697,8.421312120250688e+22
0.00025317896864169084,1.0285900758321177e+19,-1.7019522520537816e+24,933.0850438809247,7.117390945585934e+22
0.00026317896864169087,8.971311839315168e+18,-1.781847269076107e+24,949.2222086082331,6.289668348995456e+22
0.0002731789686416909,7.885921180305988e+18,-1.857483575282924e+24,964.8893067997699,5.736962522629445e+22
0.0002831789686416909,6.986774409463697e+18,-1.9294339153699915e+24,980.1437470235767,5.344934171864647e+22
0.00029317896864169095,6.23390240350803e+18,-1.997927043039693e+24,995.0249205089285,5.052138484117987e+22
0.000303178968641691,5.596521922592787e+18,-2.0630976904440743e+24,1009.5635086968238,4.824273202689986e+22
0.000313178968641691,5.051640505644007e+18,-2.125053391819501e+24,1023.7847909058611,4.641053092726359e+22
0.00032317896864169103,4.5819052827693245e+18,-2.1838949553953213e+24,1037.7102615993279,4.489797861593883e+22
0.00033317896864169105,4.173978342289514e+18,-2.2397229550296103e+24,1051.358570775014,4.36220020350677e+22
0.0003431789686416911,3.817429590934609e+18,-2.292639519365089e+24,1064.746132973999,4.2526058742870585e+22
0.0003531789686416911,3.5039815562729795e+18,-2.3427484278279e+24,1077.8875511387557,4.1570451513352644e+22
0.00036317896864169113,3.2269820427691105e+18,-2.39015459832272e+24,1090.7959269400192,4.072659049904653e+22
0.00037317896864169116,2.9810267071781053e+18,-2.4349633912591e+24,1103.4830965819538,3.997344381157339e+22
0.0003831789686416912,2.761683060375616e+18,-2.477279903649589e+24,1115.9598151161756,3.929526009711626e+22
0.0003931789686416912,2.565284915493539e+18,-2.517208323338034e+24,1128.235903739031,3.86800610943658e+22
0.00040317896864169124,2.388776884538426e+18,-2.5548513679528967e+24,1140.320369629659,3.81186168251659e+22
0.00041317896864169126,2.229595126228718e+18,-2.590309812604925e+24,1152.2215048949142,3.760373256430923e+22
0.0004231789686416913,2.0855747935957855e+18,-2.6236821010738064e+24,1163.9469692804455,3.712974258426621e+22
0.0004331789686416913,1.9548774356344154e+18,-2.655064031325945e+24,1175.5038600442385,3.6692144240595537e+22
0.00044317896864169134,1.8359335051379564e+18,-2.684548504942947e+24,1186.898771525034,3.6287329274435882e+22
0.00045317896864169137,1.7273964349359788e+18,-2.712225330110104e+24,1198.1378463308783,3.5912383694071864e+22
0.0004631789686416914,1.6281056654028933e+18,-2.73818106856583e+24,1209.2268196362213,3.5564936825756763e+22
0.0004731789686416914,1.5370585663943534e+18,-2.7624989184824105e+24,1220.1710577552471,3.5243051105431044e+22
0.00048317896864169145,1.453378113542733e+18,-2.7852586244872844e+24,1230.9755919194422,3.4945113019320248e+22
0.0004931789686416914,1.376304912379225e+18,-2.806536409866883e+24,1241.6451480053777,3.4669794833913463e+22
0.0005031789686416914,1.30517233343664e+18,-2.8264049289044925e+24,1252.1841728185861,3.4415979618070335e+22
0.0005131789686416915,1.239394754244594e+18,-2.8449332316135217e+24,1262.5968574301112,3.4182723230111728e+22
0.0005231789686416915,1.178456108050916e+18,-2.862186741656819e+24,1272.8871579761587,3.3969220228708485e+22
0.0005331789686416915,1.1219002376787524e+18,-2.878227245446184e+24,1283.0588142625986,3.3774776401467808e+22
0.0005431789686416916,1.0693227713530118e+18,-2.893112892358694e+24,1293.115366460876,3.359878660638932e+22
0.0005531789686416916,1.0203642531119075e+18,-2.906898206523123e+24,1303.0601701370617,3.3440716824250807e+22
0.0005631789686416916,9.74704311484442e+17,-2.91963411105985e+24,1312.8964098191964,3.3300089576138153e+22
0.0005731789686416916,9.320566912832055e+17,-2.9313679659041675e+24,1322.6271112779266,3.3176472053890635e+22
0.0005831789686416917,8.921650059647927e+17,-2.9421436204016583e+24,1332.255152670439,3.3069466456139705e+22
0.0005931789686416917,8.547990939632655e+17,-2.952001481753661e+24,1341.7832746769016,3.2978702131583653e+22
0.0006031789686416917,8.197518831781207e+17,-2.96097860013921e+24,1351.2140897411148,3.2903829213457563e+22
0.0006131789686416917,7.868366845194915e+17,-2.969108770982141e+24,1360.550090512396,3.2844513491655787e+22
0.0006231789686416918,7.55884848941045e+17,-2.9764226544029156e+24,1369.7936575732238,3.2800432316676017e+22
0.0006331789686416918,7.267437333891887e+17,-2.9829479114306534e+24,1378.947066526569,3.2771271366239544e+22
0.0006431789686416918,6.99274930081332e+17,-2.988709356083661e+24,1388.0124945077744,3.275672213390727e+22
0.0006531789686416918,6.733527208980088e+17,-2.9937291219856586e+24,1396.9920261780644,3.2756480021358243e+22
0.0006631789686416919,6.488456844520346e+17,-2.998139327375568e+24,1405.898402737694,3.2771366061905793e+22
0.0006731789686416919,6.256679818783311e+17,-3.0018272556038197e+24,1414.722228904023,3.279981388844019e+22
0.0006831789686416919,6.037244786969519e+17,-3.004813620725282e+24,1423.4655728936502,3.284158201528923e+22
0.0006931789686416919,5.829281804007177e+17,-3.007114021002715e+24,1432.130252606959,3.2896394976999925e+22
0.000703178968641692,5.631994583778246e+17,-3.0087415460309413e+24,1440.717990714253,3.2963969115429867e+22
0.000713178968641692,5.4446532726757203e+17,-3.009707402604196e+24,1449.2304361077342,3.3044016903241937e+22
0.000723178968641692,5.266588092921827e+17,-3.0100212772801774e+24,1457.6691722641785,3.313624874905771e+22
0.000733178968641692,5.0971836829751136e+17,-3.009691616206576e+24,1466.0357223485391,3.3240374089382432e+22
0.0007431789686416921,4.935874042351457e+17,-3.008725866208816e+24,1474.3315530847335,3.335610220580844e+22
0.0007531789686416921,4.782138007594373e+17,-3.0071306916646886e+24,1482.5580780121734,3.348314291203082e+22
0.0007631789686416921,4.635495196543968e+17,-3.004912172617512e+24,1490.716660366763,3.3621207164574344e+22
0.0007731789686416922,4.495502366255254e+17,-3.002075986215897e+24,1498.808615693623,3.377000761751052e+22
0.0007831789686416922,4.361750136876109e+17,-2.998627572265576e+24,1506.835214250796,3.392925912841467e+22
0.0007931789686416922,4.2338600398875494e+17,-2.994572283144736e+24,1514.7976832385825,3.4098679217257657e+22
0.0008031789686416922,4.1114818543977466e+17,-2.989915518163537e+24,1522.6972088758678,3.4277988477818727e+22
0.0008131789686416923,3.9942911997014483e+17,-2.984662842500715e+24,1530.5349383433163,3.4466910941375577e+22
0.0008231789686416923,3.881987356338066e+17,-2.978820090881464e+24,1538.311981602355,3.466517439200473e+22
0.0008331789686416923,3.774291291222959e+17,-2.972393456348903e+24,1546.0294131044718,3.4872510634321945e+22
0.0008431789686416923,3.6709438654324845e+17,-2.9653895645680923e+24,1553.6882733985137,3.5088655714627715e+22
0.0008531789686416924,3.5717042057672845e+17,-2.957815534238448e+24,1561.2895706440033,3.531335009725228e+22
0.0008631789686416924,3.4763482234473126e+17,-2.949679024290036e+24,1568.8342820360385,3.554633879829127e+22
0.0008731789686416924,3.384667265175681e+17,-2.9409882686692644e+24,1576.3233551517783,3.578737147995665e+22
0.0008831789686416924,3.296466883544314e+17,-2.9317520995348917e+24,1583.7577092199438,3.603620250822028e+22
0.0008931789686416925,3.211565715156725e+17,-2.921979959791437e+24,1591.1382363211947,3.6292590977436313e+22
0.0009031789686416925,3.129794456138955e+17,-2.9116819058996484e+24,1598.465802523776,3.6556300705418283e+22
0.0009131789686416925,3.050994925824453e+17,-2.9008686019207945e+24,1605.7412489580743,3.6827100202445954e+22
0.0009231789686416925,2.975019210372011e+17,-2.8895513057560057e+24,1612.9653928334947,3.7104762617650584e+22
0.0009331789686416926,2.9017288789155104e+17,-2.877741848547685e+24,1620.1390284034894,3.738906566644465e+22
0.0009431789686416926,2.8309942656275632e+17,-2.8654526081596976e+24,1627.2629278801014,3.767979154202912e+22
0.0009531789686416926,2.7626938117263987e+17,-2.852696477638998e+24,1634.3378423020422,3.797672681415633e+22
0.0009631789686416927,2.6967134620521213e+17,-2.8394868295138284e+24,1641.3645023592587,3.8279662318016784e+22
0.0009731789686416927,2.632946111371032e+17,-2.82583747672708e+24,1648.343619175171,3.858839303568609e+22
0.0009831789686416926,2.571291096009256e+17,-2.8117626309742826e+24,1655.2758850517719,3.8902717972831365e+22
0.0009931789686416926,2.5116537268589104e+17,-2.797276859133091e+24,1662.161974178163,3.9222440032585585e+22
0.0010031789686416926,2.453944860164815e+17,-2.78239503842023e+24,1669.0025433040212,3.954736588837223e+22
0.0010131789686416927,2.3980805028174435e+17,-2.767132310867789e+24,1675.7982323823105,3.987730585758821e+22
0.0010231789686416927,2.3439814492060598e+17,-2.751504037622022e+24,1682.5496651798703,4.021207377712052e+22
0.0010331789686416927,2.2915729469182432e+17,-2.735525753547269e+24,1689.2574498615788,4.055148688235656e+22
0.0010431789686416928,2.2407843888530342e+17,-2.7192131225214254e+24,1695.92217954606,4.089536569017362e+22
0.0010531789686416928,2.1915490295050653e+17,-2.7025818937846796e+24,1702.544432836497,4.124353388691995e+22
0.0010631789686416928,2.143803723390759e+17,-2.6856478596356346e+24,1709.1247743268136,4.159581822181665e+22
0.0010731789686416928,2.0974886837511434e+17,-2.6684268147366555e+24,1715.6637550869045,4.195204840650992e+22
0.0010831789686416929,2.0525472598574144e+17,-2.6509345172145186e+24,1722.1619131238708,4.2312057020478315e+22
0.0010931789686416929,2.008925731353691e+17,-2.633186651742263e+24,1728.6197738250808,4.267567942306428e+22
0.001103178968641693,1.9665731182407638e+17,-2.615198794712397e+24,1735.0378503806974,4.304275367170847e+22
0.001113178968641693,1.9254410052013712e+17,-2.596986381603612e+24,1741.4166441891268,4.341312044666013e+22
0.001123178968641693,1.8854833790984618e+17,-2.5785646765907704e+24,1747.7566452439073,4.3786622981694456e+22
0.001133178968641693,1.8466564785600186e+17,-2.5599487444403114e+24,1754.0583325052205,4.416310700094936e+22
0.001143178968641693,1.8089186546719e+17,-2.5411534246918057e+24,1760.3221742551682,4.454242066138997e+22
0.001153178968641693,1.7722302418710365e+17,-2.5221933081191536e+24,1766.548628439354,4.492441450085118e+22
0.001163178968641693,1.7365534382237306e+17,-2.503082715428997e+24,1772.7381429928937,4.530894139095187e+22
0.001173178968641693,1.7018521943207546e+17,-2.4838356781636085e+24,1778.891156155483,4.5695856495093835e+22
0.0011831789686416931,1.6680921101185946e+17,-2.4644659217249986e+24,1785.008096770248,4.608501723031584e+22
0.0011931789686416931,1.6352403390686704e+17,-2.4449868504765387e+24,1791.0893845746702,4.647628323374463e+22
0.0012031789686416932,1.6032654989799712e+17,-2.425411534813978e+24,1797.1354304767385,4.6869516332175316e+22
0.0012131789686416932,1.5721375890657866e+17,-2.4057527001391404e+24,1803.1466368226706,4.726458051526157e+22
0.0012231789686416932,1.541827912702811e+17,-2.3860227176273895e+24,1809.123397652193,4.7661341911271676e+22
0.0012331789686416933,1.5123090054458144e+17,-2.366233596705284e+24,1815.066098945577,4.805966876561306e+22
0.0012431789686416933,1.483554567897499e+17,-2.346396979130765e+24,1820.9751188603293,4.845943142139328e+22
0.0012531789686416933,1.4555394030563546e+17,-2.326524134579488e+24,1826.8508279589353,4.88605023018405e+22
0.0012631789686416933,1.4282393577974187e+17,-2.306625957639568e+24,1832.6935894288044,4.92627558943888e+22
0.0012731789686416934,1.4016312681756363e+17,-2.286712966110702e+24,1838.5037592932254,4.966606873589864e+22
0.0012831789686416934,1.3756929082602126e+17,-2.2667953005132142e+24,1844.2816866146643,5.007031939889134e+22
0.0012931789686416934,1.3504029422343141e+17,-2.2468827247128555e+24,1850.0277136910859,5.047538847860917e+22
0.0013031789686416934,1.3257408795197733e+17,-2.226984627565085e+24,1855.7421762444412,5.0881158580485275e+22
0.0013131789686416935,1.3016870326998413e+17,-2.2071100254936663e+24,1861.4254036030343,5.128751430804291e+22
0.0013231789686416935,1.2782224780376808e+17,-2.1872675659143065e+24,1867.0777188769168,5.169434225086001e+22
0.0013331789686416935,1.2553290183999448e+17,-2.1674655314234048e+24,1872.6994391273938,5.2101530972563385e+22
0.0013431789686416935,1.2329891484140526e+17,-2.1477118446713257e+24,1878.2908755300678,5.250897099857243e+22
0.0013531789686416936,1.211186021697456e+17,-2.1280140738483171e+24,1883.8523335325947,5.291655480361742e+22
0.0013631789686416936,1.1899034200125909e+17,-2.1083794387126882e+24,1889.3841130072974,5.332417679891522e+22
0.0013731789686416936,1.1691257242146384e+17,-2.0888148170921006e+24,1894.886508397768,5.373173331872343e+22
0.0013831789686416936,1.1488378868657077e+17,-2.0693267517985625e+24,1900.3598088605877,5.41391226063533e+22
0.0013931789686416937,1.1290254063988571e+17,-2.0499214579011706e+24,1905.804298403342,5.454624479974419e+22
0.0014031789686416937,1.109674302732032e+17,-2.0306048302957267e+24,1911.2202560163032,5.4953001916077026e+22
0.0014131789686416937,1.0907710942281442e+17,-2.011382451528515e+24,1916.6079558010451,5.535929783591282e+22
0.0014231789686416938,1.0723027759153278e+17,-1.9922595998227012e+24,1921.967667094164,5.576503828649259e+22
0.0014331789686416938,1.0542567988821026e+17,-1.9732412572671216e+24,1927.299654587406,5.617013082438298e+22
0.0014431789686416938,1.0366210507727592e+17,-1.9543321181252958e+24,1932.6041784432168,5.657448481726153e+22
0.0014531789686416938,1.0193838373096851e+17,-1.935536597231192e+24,1937.8814944071016,5.6978011425065715e+22
0.0014631789686416939,1.002533864777803e+17,-1.916858838437508e+24,1943.1318539165065,5.73806235804401e+22
0.0014731789686416939,9.860602234118224e+16,-1.898302723084535e+24,1948.3555042054886,5.77822359683518e+22
0.001483178968641694,9.69952371627095e+16,-1.8798718784654472e+24,1953.5526884069147,5.818276500517505e+22
0.001493178968641694,9.542001210449408e+16,-1.861569686259845e+24,1958.7236456505773,5.858212881697594e+22
0.001503178968641694,9.387936222608022e+16,-1.8433992909168122e+24,1963.8686111591894,5.898024721735242e+22
0.001513178968641694,9.237233513127912e+16,-1.8253636079646233e+24,1968.9878163409137,5.937704168461118e+22
0.001523178968641694,9.089800968083067e+16,-1.8074653322298944e+24,1974.0814888787938,5.977243533836605e+22
0.001533178968641694,8.945549476685373e+16,-1.789706945952037e+24,1979.1498528181073,6.016635291576673e+22
0.001543178968641694,8.804392814569229e+16,-1.7720907267764034e+24,1984.1931286502677,6.055872074713569e+22
