t(s),Adsorbed H on surface 1 (H m-2),solute flux surface 1 (H m-2 s-1),Total T surface 1 (K),0 value at [0] (H m-3)
1e-06,22370.80429084573,-4250619152.1668897,300.27033762933974,85515237130.15663
2.05e-06,22370.80429084573,-4297324909.409464,300.6954629645918,85515237130.15663
3.1525e-06,22370.80429084573,-4359079807.914515,301.2523471447974,85515237130.15663
4.310125e-06,22370.80429084573,-4435426545.459204,301.9327999332566,85515237130.15663
5.52563125e-06,22370.80429084573,-4526591521.090858,302.73406606112314,85515237130.15663
6.8019128125e-06,22370.80429084573,-4633196390.014632,303.6560491743888,85515237130.15663
8.142008453125e-06,22370.80429084573,-4756149508.34155,304.70017433347857,85515237130.15663
9.54910887578125e-06,22370.80429084573,-4896601189.400389,305.8688220380803,85515237130.15663
1.1026564319570314e-05,22370.80429084573,-5055927170.056359,307.1650060985796,85515237130.15663
1.2577892535548829e-05,22370.80429084573,-5235726662.921344,308.5921697847259,85515237130.15663
1.4206787162326272e-05,22370.80429084573,-5437828942.22318,310.15404454522997,85515237130.15663
1.5917126520442588e-05,22370.80429084573,-5664305443.611358,311.854543849273,85515237130.15663
1.771298284646472e-05,22370.80429084573,-5917485699.5732355,313.69767752949014,85515237130.15663
1.9598631988787957e-05,22370.80429084573,-6199976058.82071,315.6874783851459,85515237130.15663
2.1578563588227356e-05,22370.80429084573,-6514680429.715349,317.8279362278067,85515237130.15663
2.3657491767638723e-05,22370.80429084573,-6864822407.497512,320.1229365169874,85515237130.15663
2.584036635602066e-05,22370.80429084573,-7253968169.35425,322.57620193520864,85515237130.15663
2.8132384673821694e-05,22370.80429084573,-7686049488.558919,325.1912360274076,85515237130.15663
3.053900390751278e-05,22370.80429084573,-8165386151.938872,327.9712685592649,85515237130.15663
3.306595410288842e-05,22370.80429084573,-8696706978.290257,330.91920262477345,85515237130.15663
3.571925180803284e-05,22370.80429084573,-9285168541.61812,334.0375638112623,85515237130.15663
3.850521439843448e-05,22370.80429084573,-9936370614.099802,337.328451941971,85515237130.15663
4.143047511835621e-05,22370.80429084573,-10656367272.088232,340.79349608207036,85515237130.15663
4.4501998874274025e-05,22370.80429084573,-11451672567.570555,344.4338136240819,85515237130.15663
4.772709881798773e-05,390036839.12247366,-98441559238608.67,348.2499743716539,159373926676698.34
5.111345375888712e-05,1300584512.3743896,-231279725725061.1,352.2419706168705,328585206730357.5
5.4669126446831475e-05,3119558205.846032,-449972449110671.4,356.40919425637514,578794720214015.8
5.8402582769173055e-05,6589033543.96323,-828129310991390.2,360.7504220119962,972164577417570.8
6.232271190763171e-05,13100136408.836796,-1493894283568219.5,365.2638098080428,1604783613218711.0
6.64388475030133e-05,25258410098.035027,-2676535721072437.5,369.94689730377996,2633371862226608.5
7.076078987816397e-05,47951006888.529015,-4788340191489237.0,374.7966234841522,4315985024363715.0
7.529882937207217e-05,90354504813.33618,-8571016770760544.0,379.80935406036485,7078058467830726.0
8.006377084067578e-05,169701894565.44125,-1.535691920851029e+16,384.98092123500334,1.1619992915644528e+16
8.506695938270958e-05,318324736804.5603,-2.7532711967347184e+16,390.3066761281234,1.909167564021829e+16
9.032030735184505e-05,596758376600.2458,-4.935701330735569e+16,395.78155384971956,3.137381689624427e+16
9.583632271943731e-05,1117997332553.5928,-8.839151732888886e+16,401.40015084698234,5.152821886260948e+16
0.00010162813885540918,2092105064552.1714,-1.5798528969072656e+17,407.15681374598034,8.45127655004338e+16
0.00010770954579817965,3907680717063.1426,-2.8154894832199885e+17,413.0457384778194,1.3830727917382371e+17
0.00011409502308808864,7279487763824.504,-4.9983877320506355e+17,419.0610780252179,2.256707559270135e+17
0.00012079977424249307,13513760452773.072,-8.832467227870733e+17,425.1970566839086,3.668587818827379e+17
0.00012783976295461773,24980790914083.43,-1.55231937375264e+18,431.4480883099572,5.937848778134132e+17
0.00013523175110234862,45948875270723.805,-2.711633637663383e+18,437.80889566233566,9.563255245471762e+17
0.00014299333865746606,84037627177598.08,-4.704579923157261e+18,444.27462766268116,1.5316142232517496e+18
0.00015114300559033938,152733823228896.5,-8.102555692871e+18,450.8409712207526,2.4381123283227325e+18
0.00015970015586985636,275668843734161.0,-1.3843434802497585e+19,457.5042542213424,3.855209606849058e+18
0.0001686851636633492,493774848716626.1,-2.344369837664014e+19,464.2615363841898,6.050463326996686e+18
0.00017811942184651667,876949576208508.8,-3.930520995278027e+19,471.1106849731747,9.413971250315868e+18
0.00018802539293884252,1542320847999400.5,-6.511821608021592e+19,478.0504327761127,1.4494597093568748e+19
0.00019802539293884252,2616319309411653.0,-1.042658675559947e+20,484.81717193163246,2.1658959873513832e+19
0.00020802539293884252,4270648229526296.5,-1.6076282775201304e+20,491.3622478819303,3.1303894325832307e+19
0.00021802539293884252,6726673830833623.0,-2.388016286682552e+20,497.7018959528195,4.3765616398690705e+19
0.00022802539293884251,1.024094367378084e+16,-3.4172840709625165e+20,503.8511239614577,5.916910686563812e+19
0.00023802539293884251,1.508945256854698e+16,-4.712837323836881e+20,509.8237135698411,7.73637821420975e+19
0.0002480253929388425,2.1549174515776812e+16,-6.273273631469434e+20,515.6322718900745,9.795179809185276e+19
0.00025802539293884254,2.98648623051807e+16,-8.064507362447576e+20,521.2226199031287,1.2020202034601943e+20
0.00026802539293884257,4.02556443090286e+16,-1.0058155345373356e+21,526.6306491960107,1.4355868655986998e+20
0.0002780253929388426,5.2925538784327656e+16,-1.2235925467896522e+21,531.885931007603,1.6769476019132688e+20
0.0002880253929388426,6.807310529118727e+16,-1.4588934204463068e+21,537.0048066632871,1.9246668408128615e+20
0.00029802539293884264,8.589966088361048e+16,-1.7116231931580546e+21,541.9993458491465,2.1785762592694665e+20
0.00030802539293884267,1.0661381585097245e+17,-1.982114205602849e+21,546.8792568680882,2.4391066564210082e+20
0.0003180253929388427,1.3043284925600222e+17,-2.270813657096283e+21,551.6526813763006,2.7068274881946462e+20
0.0003280253929388427,1.5758235223453306e+17,-2.578115013143056e+21,556.3266200369751,2.982239064437361e+20
0.00033802539293884275,1.882952915903384e+17,-2.904305619156801e+21,560.9071947781387,3.2657283542629627e+20
0.0003480253929388428,2.228110623172784e+17,-3.2495721281146763e+21,565.3998253618179,3.557591655387432e+20
0.0003580253929388428,2.6137468383386982e+17,-3.6140223391244726e+21,569.8093556515581,3.8580685998860684e+20
0.00036802539293884283,3.042361177187802e+17,-3.99770569249613e+21,574.140147892032,4.167368164370578e+20
0.00037802539293884285,3.516496472739824e+17,-4.400628599647316e+21,578.3961554143522,4.48568487927608e+20
0.0003880253929388429,4.038732700647175e+17,-4.822765609084243e+21,582.5809801217006,4.8132082055849306e+20
0.0003980253929388429,4.6116807054159866e+17,-5.264067923045839e+21,586.6979188577002,5.1501278361684404e+20
0.00040802539293884293,5.2379754983010214e+17,-5.724470180717444e+21,590.7500014212807,5.4966365675788743e+20
0.00041802539293884296,5.920268944858504e+17,-6.203895891831479e+21,594.7400221572691,5.852931597732585e+20
0.000428025392938843,6.661221680791864e+17,-6.702261627772215e+21,598.670566511945,6.219214709175866e+20
0.000438025392938843,7.463494107251593e+17,-7.219479976261541e+21,602.5440335774854,6.595691637215383e+20
0.00044802539293884304,8.329736330986292e+17,-7.755461254643714e+21,606.3626553934234,6.982570875261933e+20
0.00045802539293884306,9.262576935780719e+17,-8.310114009051686e+21,610.1285135970995,7.380062174797508e+20
0.0004680253929388431,1.0264610501512724e+18,-8.88334437516046e+21,613.8435538819449,7.788375022117542e+20
0.0004780253929388431,1.1338383826428502e+18,-9.475054429968936e+21,617.5095986270235,8.207717404473343e+20
0.00048802539293884314,1.2486380855780157e+18,-1.0085139713649717e+22,621.1283579874781,8.63829520380396e+20
0.0004980253929388432,1.3711006373509793e+18,-1.0713486141528115e+22,624.7014396807195,9.080312571133801e+20
0.0005080253929388432,1.501456856964135e+18,-1.135996655400634e+22,628.2303576591532,9.533973633600978e+20
0.0005180253929388432,1.6399260650080056e+18,-1.2024437165806385e+22,631.7165398273163,9.999485866968453e+20
0.0005280253929388432,1.7867141702509153e+18,-1.270673417387991e+22,635.161334934556,1.04770654275862e+21
0.0005380253929388433,1.942011706655745e+18,-1.3406670765722358e+22,638.5660187510819,1.0966944679083215e+21
0.0005480253929388433,2.1059918473383683e+18,-1.4124034740704158e+22,641.931799620374,1.1469382074173551e+21
0.0005580253929388433,2.2788084214575951e+18,-1.4858586915772798e+22,645.2598234659885,1.1984674462004302e+21
0.0005680253929388434,2.460593956926729e+18,-1.561006043683304e+22,648.5511783176323,1.2513171791297928e+21
0.0005780253929388434,2.651457765992076e+18,-1.6378161063600778e+22,651.8068984143086,1.3055294075966742e+21
0.0005880253929388434,2.8514840821132503e+18,-1.7162568438146547e+22,655.0279679327713,1.3611550386095939e+21
0.0005980253929388434,3.0607302454323205e+18,-1.7962938291418089e+22,658.2153243832283,1.4182559530790777e+21
0.0006080253929388435,3.2792249208802447e+18,-1.8778905489798085e+22,661.3698617086197,1.4769072014919302e+21
0.0006180253929388435,3.506966318314524e+18,-1.961008777842606e+22,664.4924331194035,1.5371992783616014e+21
0.0006280253929388435,3.7439203688797655e+18,-2.045609004148538e+22,667.5838536913117,1.5992404218476993e+21
0.0006380253929388435,3.9900187970754196e+18,-2.1316508874983485e+22,670.6449027505774,1.6631588818403577e+21
0.0006480253929388436,4.245157014943084e+18,-2.219093725493038e+22,673.6763260673707,1.7291050982569104e+21
0.0006580253929388436,4.509191754569871e+18,-2.3078969085898328e+22,676.6788378766461,1.7972537308685242e+21
0.0006680253929388436,4.781938348944022e+18,-2.3980203429763666e+22,679.6531227430431,1.8678054816812808e+21
0.0006780253929388436,5.063167570255753e+18,-2.4894248242190874e+22,682.5998372846155,1.9409886496646842e+21
0.0006880253929388437,5.352601940066479e+18,-2.5820723482595854e+22,685.5196117676003,2.0170603539815832e+21
0.0006980253929388437,5.649911438330607e+18,-2.6759263512707688e+22,688.4130515851521,2.0963073543888222e+21
0.0007080253929388437,5.95470855877748e+18,-2.770951875156753e+22,691.2807386294929,2.1790463839859242e+21
0.0007180253929388437,6.266542687242165e+18,-2.8671156613976194e+22,694.12323256729,2.2656238884440066e+21
0.0007280253929388438,6.584893817468079e+18,-2.9643861818153217e+22,696.9410720263164,2.3564150350052587e+21
0.0007380253929388438,6.909165665689832e+18,-3.06273362067877e+22,699.7347757008749,2.4518218121926447e+21
0.0007480253929388438,7.238678300498557e+18,-3.1621298281244898e+22,702.5048433832544,2.5522699856885396e+21
0.0007580253929388439,7.572660467046969e+18,-3.2625482697776755e+22,705.2517569264298,2.65820460608799e+21
0.0007680253929388439,7.910241852795014e+18,-3.3639640020015856e+22,707.9759811443804,2.7700836805481836e+21
0.0007780253929388439,8.250445612930812e+18,-3.4663537056613023e+22,710.6779646543317,2.8883695241680907e+21
0.0007880253929388439,8.592181543472732e+18,-3.5696958139481536e+22,713.3581406657975,3.013517203174223e+21
0.000798025392938844,8.934240353899047e+18,-3.673970770989762e+22,716.0169277206179,3.1459593792528004e+21
0.000808025392938844,9.275289543311018e+18,-3.7791614571902205e+22,718.6547303872694,3.2860867777285655e+21
0.000818025392938844,9.613871419264674e+18,-3.885253813808353e+22,721.2719399132818,3.434223455692693e+21
0.000828025392938844,9.948403813205406e+18,-3.992237691564285e+22,723.8689348385163,3.5905960752355895e+21
0.0008380253929388441,1.027718404233505e+19,-4.10010793449926e+22,726.4460815726158,3.7552965433686764e+21
0.0008480253929388441,1.0598396653751122e+19,-4.208865687958842e+22,729.003734938505,3.928237734208765e+21
0.0008580253929388441,1.0910125481215846e+19,-4.318519885744461e+22,731.5422386854601,4.109102651380975e+21
0.0008680253929388441,1.1210370573192436e+19,-4.429088821830484e+22,734.0619259720114,4.297288423410759e+21
0.0008780253929388442,1.1497070634572237e+19,-4.540601645154542e+22,736.5631198227816,4.4918480517195613e+21
0.0008880253929388442,1.1768131759779275e+19,-4.653099530593902e+22,739.0461335599286,4.691434893898185e+21
0.0008980253929388442,1.2021463359831513e+19,-4.7666361839431805e+22,741.511271210754,4.894257371798755e+21
0.0009080253929388442,1.22550221502533e+19,-4.8812772528812215e+22,743.9588278940319,5.0980539883897e+21
0.0009180253929388443,1.2466864630811451e+19,-4.997098176345947e+22,746.3890901850369,5.300100675369172e+21
0.0009280253929388443,1.2655207388939715e+19,-5.11418006651023e+22,748.8023364621001,5.497262618065809e+21
0.0009380253929388443,1.2818492667215165e+19,-5.2326034362585825e+22,751.1988372347398,5.686099667613117e+21
0.0009480253929388443,1.2955454169428486e+19,-5.352439989731311e+22,753.5788554552452,5.863027321065068e+21
0.0009580253929388444,1.3065175746083998e+19,-5.473743238659049e+22,755.9426468144994,6.024524386611326e+21
0.0009680253929388444,1.3147134476971626e+19,-5.596539249218824e+22,758.290460022578,6.167366178118618e+21
0.0009780253929388444,1.3201220738966626e+19,-5.720819145753658e+22,760.6225370758978,6.288852430625479e+21
0.0009880253929388445,1.322773135894949e+19,-5.846534902604616e+22,762.9391135113132,6.386996259078681e+21
0.0009980253929388445,1.3227337040391985e+19,-5.973599391696398e+22,765.2404186475746,6.460646432174262e+21
0.0010080253929388445,1.3201030207375903e+19,-6.101890774743123e+22,767.5266758154567,6.509528458489008e+21
0.0010180253929388445,1.3150062508877816e+19,-6.231260434954153e+22,769.7981025767848,6.53420593650039e+21
0.0010280253929388446,1.3075881591873343e+19,-6.361543030729366e+22,772.0549109337878,6.535977083017646e+21
0.0010380253929388446,1.2980074671875578e+19,-6.492567073486446e+22,774.2973075277973,6.516728899620908e+21
0.0010480253929388446,1.2864323018881358e+19,-6.6241646486397265e+22,776.5254938296613,6.478772511231566e+21
0.0010580253929388446,1.2730368024366998e+19,-6.7561793484395e+22,778.7396663211781,6.424679528712793e+21
0.0010680253929388447,1.2579986952168962e+19,-6.888471982850605e+22,780.9400166682432,6.357133401135161e+21
0.0010780253929388447,1.2414975178193924e+19,-7.020924045558762e+22,783.1267318867533,6.278803784103139e+21
0.0010880253929388447,1.2237131595977495e+19,-7.1534391806421874e+22,785.2999945004842,6.192247168231657e+21
0.0010980253929388447,1.2048244549049952e+19,-7.285943028661459e+22,787.4599826930965,6.099833723187897e+21
0.0011080253929388448,1.1850076722320423e+19,-7.418381863832275e+22,789.6068704523764,6.003698325428486e+21
0.0011180253929388448,1.1644348520912759e+19,-7.5507204102085465e+22,791.7408277094079,5.905712681603027e+21
0.0011280253929388448,1.1432720344783569e+19,-7.682939172886733e+22,793.8620204711037,5.807474993218068e+21
0.0011380253929388448,1.121677471796489e+19,-7.815031561247013e+22,795.9706109475939,5.710313504455432e+21
0.0011480253929388449,1.099799944552606e+19,-7.947001010401104e+22,798.0667576741824,5.615300456791483e+21
0.001158025392938845,1.0777772906128196e+19,-8.078858337837174e+22,800.1506156282402,5.523272905930888e+21
0.001168025392938845,1.0557352349525891e+19,-8.210619235816418e+22,802.2223363413779,5.434858342542889e+21
0.001178025392938845,1.0337865732903688e+19,-8.342302273880266e+22,804.2820680072089,5.350501787548328e+21
0.001188025392938845,1.0120307288272056e+19,-8.47392718061992e+22,806.3299555845083,5.270493266231519e+21
0.001198025392938845,9.905536716433052e+18,-8.60551351380199e+22,808.3661408966244,5.194994058704315e+21
0.001208025392938845,9.694281674287559e+18,-8.73707967117798e+22,810.3907627267015,5.124060894154505e+21
0.001218025392938845,9.487143071944792e+18,-8.868642201551563e+22,812.403956909394,5.057667585643451e+21
0.001228025392938845,9.284602617840667e+18,-9.000215368632702e+22,814.4058564189332,4.995723894295224e+21
0.0012380253929388451,9.087032030947098e+18,-9.131810918910925e+22,816.3965914536426,4.93809162463306e+21
0.0012480253929388451,8.894703363807331e+18,-9.263438007551846e+22,818.3762895178888,4.884598095797921e+21
0.0012580253929388452,8.707799933849267e+18,-9.395103240877663e+22,820.345075500021,4.835047218966839e+21
0.0012680253929388452,8.526427430645482e+18,-9.526810800874806e+22,822.3030717482784,4.78922845392701e+21
0.0012780253929388452,8.350624843835527e+18,-9.658562622990433e+22,824.250398143249,4.746923928924524e+21
0.0012880253929388452,8.180374933285614e+18,-9.790358605116446e+22,826.1871721680019,4.707913999265831e+21
0.0012980253929388453,8.015614035161013e+18,-9.922196830812906e+22,828.1135089755611,4.6719814990514126e+21
0.0013080253929388453,7.856241062186563e+18,-1.0054073794530054e+23,830.0295214539681,4.6389149133889014e+21
0.0013180253929388453,7.70212561213814e+18,-1.018598462031171e+23,831.9353202891805,4.608510669338366e+21
0.0013280253929388453,7.553115145175018e+18,-1.0317923268210016e+23,833.831014025241,4.580574715284138e+21
0.0013380253929388454,7.409041228232236e+18,-1.0449882725227979e+23,835.7167091229359,4.5549235321736863e+21
0.0013480253929388454,7.269724874008653e+18,-1.0581855178787509e+23,837.5925100160005,4.531384696325519e+21
0.0013580253929388454,7.134981023932423e+18,-1.0713832172224082e+23,839.4585191655349,4.5097970931232145e+21
0.0013680253929388455,7.00462223981458e+18,-1.084580474245929e+23,841.3148371125453,4.4900108633039354e+21
0.0013780253929388455,6.878461678660756e+18,-1.0977763540538918e+23,843.1615625285382,4.471887148716741e+21
0.0013880253929388455,6.756315430223556e+18,-1.1109698936171029e+23,844.9987922646043,4.455297692013824e+21
0.0013980253929388455,6.638004298219649e+18,-1.124160110745562e+23,846.8266213988063,4.44012433428549e+21
0.0014080253929388456,6.523355104501639e+18,-1.1373460117144532e+23,848.645143281944,4.426258445991735e+21
0.0014180253929388456,6.412201591589927e+18,-1.1505265976765604e+23,850.4544495816482,4.4136003192995814e+21
0.0014280253929388456,6.304384993471571e+18,-1.16370087000717e+23,852.2546303254336,4.4020585439537524e+21
0.0014380253929388456,6.199754338029865e+18,-1.1768678346882306e+23,854.0457739418405,4.391549383678522e+21
0.0014480253929388457,6.098166537334538e+18,-1.1900265058766969e+23,855.8279673008125,4.3819961660824145e+21
0.0014580253929388457,5.999486314712572e+18,-1.2031759087370929e+23,857.601295751998,4.37332869540786e+21
0.0014680253929388457,5.903586010314689e+18,-1.216315081684849e+23,859.3658431629586,4.365482694865134e+21
0.0014780253929388457,5.810345300068663e+18,-1.2294430780736753e+23,861.1216919547837,4.3583992826625917e+21
0.0014880253929388458,5.719650856586429e+18,-1.2425589674725381e+23,862.8689231378511,4.3520244843624415e+21
0.0014980253929388458,5.631395974926775e+18,-1.2556618365543011e+23,864.6076163455834,4.346308782381365e+21
0.0015080253929388458,5.545480181121721e+18,-1.26875078969636e+23,866.3378498677589,4.3412067025908694e+21
0.0015180253929388458,5.461808837097452e+18,-1.2818249493243223e+23,868.0597006823577,4.3366764369474507e+21
0.0015280253929388459,5.380292752019961e+18,-1.294883456062872e+23,869.7732444866456,4.3326795005993366e+21
0.001538025392938846,5.300847807140795e+18,-1.307925468728556e+23,871.4785557272579,4.329180421443639e+21
0.001548025392938846,5.223394598842713e+18,-1.320950164204563e+23,873.1757076295378,4.3261464598944363e+21
0.001558025392938846,5.147858102725735e+18,-1.333956737214328e+23,874.8647722256636,4.32354735645342e+21
0.001568025392938846,5.074167360149737e+18,-1.346944400034775e+23,876.5458203822852,4.3213551047315103e+21
0.001578025392938846,5.002255187600805e+18,-1.359912382153011e+23,878.2189218270628,4.319543747529358e+21
0.001588025392938846,4.932057908496538e+18,-1.3728599298918022e+23,879.884145174525,4.3180891937549724e+21
0.001598025392938846,4.863515106535982e+18,-1.3857863060205941e+23,881.5415579514404,4.3169690540755837e+21
