t(s),Adsorbed H on surface 1 (H m-2),solute flux surface 1 (H m-2 s-1),Total T surface 1 (K),0 value at [0] (H m-3)
1e-08,2663.9442499766333,-2728165259.919879,300.24199388316254,1909843293909997.5
2e-08,8040.570736334876,-5507285348.320847,300.3229850958378,3839390559179371.0
3.0000000000000004e-08,16193.381031140532,-8352458976.3878145,300.42292901428647,5793464187430382.0
4e-08,27198.07685617759,-11276388410.89253,300.5380053681843,7776212847538672.0
5e-08,41141.167260593356,-14290363006.378113,300.66577564135446,9791318632981102.0
6e-08,58119.154054218285,-17404852480.24076,300.8044923161482,1.184216159686422e+16
6.999999999999999e-08,78238.03643326562,-20629835887.541157,300.95281682436206,1.3931915850276564e+16
7.999999999999999e-08,101613.01503321435,-23975008190.3113,301.10967766600425,1.6063611408390396e+16
8.999999999999999e-08,128368.33137133687,-27449921339.09288,301.274189919639,1.8240176730578484e+16
9.999999999999998e-08,158637.20494938586,-31064086783.207375,301.44560560177,2.0464469447207388e+16
1.0999999999999998e-07,192561.8442082805,-34827053674.59638,301.6232810931087,2.273929940556719e+16
1.2e-07,230293.51552558588,-38748470973.75034,301.8066547125089,2.5067446482561916e+16
1.3e-07,271992.6593384391,-42838138485.69832,301.9952306737197,2.745167469652324e+16
1.4e-07,317829.04561637965,-47106050061.12606,302.18856724271006,2.989474362105559e+16
1.5000000000000002e-07,367981.963007613,-51562431128.653854,302.3862677642586,3.239941778160526e+16
1.6000000000000003e-07,422640.4374309563,-56217772057.16612,302.58797371053424,3.4968474510970816e+16
1.7000000000000004e-07,482003.4769131148,-61082858414.6873,302.7933591928999,3.760471060557409e+16
1.8000000000000005e-07,546280.3402165235,-66168798900.9605,303.00212655706366,4.031094803329141e+16
1.9000000000000006e-07,615690.827354814,-71487051531.93613,303.21400279644604,4.3090038880394e+16
2.0000000000000007e-07,690465.5905083887,-77049448514.28525,303.4287365944213,4.594486968019532e+16
2.1000000000000008e-07,770846.4641699552,-82868220147.40405,303.6460958574545,4.887836523342278e+16
2.200000000000001e-07,857086.8135954725,-88956018016.67717,303.8658656367656,5.189349200630291e+16
2.300000000000001e-07,949451.9008281302,-95325937686.9896,304.0878463613398,5.499326117434982e+16
2.400000000000001e-07,1048219.2677148322,-101991541064.12552,304.3118523232501,5.818073136617789e+16
2.500000000000001e-07,1153679.1354556377,-108966878560.10344,304.53771036954197,6.145901115114667e+16
2.600000000000001e-07,1266134.820323703,-116266511174.07503,304.7652587648033,6.4831261306470424e+16
2.700000000000001e-07,1385903.1652716568,-123905532581.3054,304.9943461959764,6.830069689300069e+16
2.800000000000001e-07,1513314.9872039345,-131899591307.73163,305.22483089663837,7.1870589163795656e+16
2.9000000000000014e-07,1648715.5397464067,-140264913055.56363,305.45657987234836,7.554426732551597e+16
3.0000000000000015e-07,1792464.991386936,-149018323235.8156,305.6894682120636,7.932512016940168e+16
3.1000000000000016e-07,1944938.9188951142,-158177269755.8757,305.9233784733092,8.321659758591957e+16
3.2000000000000017e-07,2106528.815957751,-167759846103.8915,306.1582001309099,8.722221197499158e+16
3.300000000000002e-07,2277642.6169898543,-177784814766.58093,306.3938290807985,9.134553956192504e+16
3.400000000000002e-07,2458705.23609971,-188271631012.81766,306.6301671917842,9.559022162768509e+16
3.500000000000002e-07,2650159.1212020214,-199240467071.81174,306.8671218992827,9.995996566092123e+16
3.600000000000002e-07,2852464.823285396,-210712236731.78235,307.1046058359216,1.0445854643813384e+17
3.700000000000002e-07,3066101.5808503767,-222708620382.54752,307.34253649468485,1.0908980703750754e+17
3.800000000000002e-07,3291567.9195419233,-235252090523.42664,307.58083592088286,1.1385765979121451e+17
3.9000000000000024e-07,3529382.2670062743,-248365937756.1184,307.8194304297517,1.18766087180381e+17
4.0000000000000025e-07,3780083.5830065566,-262074297280.73422,308.05825034691986,1.2381914267639275e+17
4.1000000000000026e-07,4044232.0048347106,-276402175911.9791,308.2972297693446,1.2902095153177613e+17
4.2000000000000027e-07,4322409.508059372,-291375479631.36816,308.5363063446287,1.3437571152351714e+17
4.300000000000003e-07,4615220.582650503,-307021041690.5021,308.77542106689083,1.3988769365136178e+17
4.400000000000003e-07,4923292.9245219035,-323366651279.6878,309.0145180875849,1.455612427933663e+17
4.500000000000003e-07,5247278.142532404,-340441082775.49255,309.25354453985744,1.514007783207335e+17
4.600000000000003e-07,5587852.480985602,-358274125580.305,309.49245037519285,1.5741079467376765e+17
4.700000000000003e-07,5945717.557666595,-376896614566.48706,309.73118821124274,1.635958619006094e+17
4.800000000000003e-07,6321601.117452289,-396340461137.3088,309.96971318985436,1.6996062616026112e+17
4.900000000000003e-07,6716257.801529678,-416638684916.4833,310.2079828444225,1.7650981019128525e+17
5.000000000000003e-07,7130469.932253969,-437825446077.8791,310.44595697578205,1.8324821374744752e+17
5.100000000000003e-07,7565048.313675645,-459936078326.6939,310.68359753593796,1.9018071400147907e+17
5.200000000000003e-07,8020833.047762618,-483007122543.14966,310.9208685190037,1.9731226591805075e+17
5.300000000000003e-07,8498694.366340443,-507076361099.6797,311.1577358587789,2.0464790259697866e+17
5.400000000000003e-07,8999533.478770318,-532182852862.27515,311.39416733245537,2.1219273558761962e+17
5.500000000000003e-07,9524283.435381189,-558366968886.7177,311.6301324699868,2.1995195517535968e+17
5.600000000000004e-07,10073910.006668827,-585670428820.1487,311.86560246870295,2.2793083064105258e+17
5.700000000000004e-07,10649412.578271223,-614136338018.4894,312.10055011278655,2.3613471049422435e+17
5.800000000000004e-07,11251825.061726134,-643809225390.023,312.3349496972663,2.4456902268082502e+17
5.900000000000004e-07,11882216.821012976,-674735081975.5168,312.5687769562088,2.532392747662768e+17
6.000000000000004e-07,12541693.614877818,-706961400275.1506,312.802008994821,2.6215105409454195e+17
6.100000000000004e-07,13231398.55493663,-740537214332.5231,313.03462422519925,2.7131002792390995e+17
6.200000000000004e-07,13952513.079548452,-775513140585.9417,313.2666023054816,2.807219435401831e+17
6.300000000000004e-07,14706257.943446746,-811941419497.2825,313.49792408218195,2.90392628347921e+17
6.400000000000004e-07,15493894.223113777,-849875957968.6066,313.72857153550103,3.0032798994038976e+17
6.500000000000004e-07,16316724.337879583,-889372372556.7859,313.9585277274268,3.10534016148846e+17
6.600000000000005e-07,17176093.086723845,-930488033496.394,314.18777675244974,3.2101677507177504e+17
6.700000000000005e-07,18073388.700755853,-973282109541.0988,314.41630369073357,3.317824150846899e+17
6.800000000000005e-07,19010043.91134469,-1017815613633.8812,314.64409456359294,3.4283716483108806e+17
6.900000000000005e-07,19987537.03386882,-1064151449416.373,314.8711362911412,3.5418733319515437e+17
7.000000000000005e-07,21007393.06705151,-1112354458587.6099,315.09741665198106,3.6583930925678995e+17
7.100000000000005e-07,22071184.80784563,-1162491469122.7036,315.32292424481926,3.777995622295361e+17
7.200000000000005e-07,23180533.98182893,-1214631344361.6562,315.5476484518978,3.9007464138196115e+17
7.300000000000005e-07,24337112.38906838,-1268845032978.9585,315.7715794041371,4.0267117594306336e+17
7.400000000000005e-07,25542643.065409705,-1325205619844.2876,315.9947079478982,4.15595874992244e+17
7.500000000000005e-07,26798901.459146142,-1383788377784.9592,316.2170256132737,4.2885552733439046e+17
7.600000000000006e-07,28107716.62301828,-1444670820260.618,316.438524583827,4.424570013606115e+17
7.700000000000006e-07,29470972.42149488,-1507932754960.8755,316.6591976677,4.564072448951509e+17
7.800000000000006e-07,30890608.753282715,-1573656338336.428,316.8790382700189,4.7071328502900845e+17
7.900000000000006e-07,32368622.789011866,-1641926131074.51,317.09804036652986,4.853822279407844e+17
8.000000000000006e-07,33907070.22404113,-1712829154529.3262,317.3161984784013,5.004212587052612e+17
8.100000000000006e-07,35508066.546327,-1786454948118.3188,317.5335076481333,5.1583764109022746e+17
8.200000000000006e-07,37173788.31929819,-1862895627695.1086,317.74996341651814,5.316387173420439e+17
8.300000000000006e-07,38906474.47967653,-1942245944910.026,317.96556180060026,5.4783190796044486e+17
8.400000000000006e-07,40708427.650184065,-2024603347569.181,318.18029927258567,5.644247114630599e+17
8.500000000000006e-07,42582015.46707527,-2110068041003.052,318.39417273965506,5.814247041401363e+17
8.600000000000007e-07,44529671.9224324,-2198743050455.6387,318.60717952463625,5.988395397999345e+17
8.700000000000007e-07,46553898.72116142,-2290734284505.3877,318.8193173474958,6.166769495052596e+17
8.800000000000007e-07,48657266.6526254,-2386150599528.8403,319.03058430761,6.349447413015899e+17
8.900000000000007e-07,50842416.97685181,-2485103865218.3975,319.2409788667795,6.536507999372498e+17
9.000000000000007e-07,53112062.8252499,-2587709031165.3477,319.4504998329523,6.72803086576071e+17
9.100000000000007e-07,55468990.61577398,-2694084194519.5244,319.65914634462285,6.924096385029765e+17
9.200000000000007e-07,57916061.482468724,-2804350668736.767,319.8669178558766,7.124785688229146e+17
9.300000000000007e-07,60456212.719332114,-2918633053425.931,320.0738141220497,7.330180661535602e+17
9.400000000000007e-07,63092459.23843231,-3037059305306.5073,320.27983518597773,7.54036394312196e+17
9.500000000000008e-07,65827895.042214625,-3159760810288.518,320.48498136480555,7.755418919971744e+17
9.600000000000008e-07,68665694.70993523,-3286872456686.4165,320.689253237335,7.975429724643529e+17
9.700000000000007e-07,71609114.89815876,-3418532709578.173,320.89265163188566,8.200481231988905e+17
9.800000000000006e-07,74661495.85525729,-3554883686321.5737,321.0951776146471,8.430659055827796e+17
9.900000000000005e-07,77826262.9498491,-3696071233239.1772,321.2968324785007,8.666049545584813e+17
1.0000000000000004e-06,81106928.21311599,-3842245003483.772,321.49761773229113,8.906739782890232e+17
1.0100000000000003e-06,84507091.89493902,-3993558536096.125,321.6975350905289,9.152817578149089e+17
1.0200000000000002e-06,88030444.03379326,-4150169336266.7505,321.89658646350466,9.404371467081818e+17
1.03e-06,91680766.0403431,-4312238956813.6616,322.0947739477986,9.661490707239722e+17
1.04e-06,95461932.29468073,-4479933080888.013,322.2920998171682,9.924265274498534e+17
1.05e-06,99377911.75715144,-4653421605919.575,322.4885665137988,1.0192785859533184e+18
1.0599999999999998e-06,103432769.5927106,-4832878728814.011,322.68417663990135,1.0467143864276817e+18
1.0699999999999997e-06,107630668.8087584,-5018483032414.192,322.87893294964437,1.0747431398367044e+18
1.0799999999999996e-06,111975871.9063996,-5210417573237.337,323.07283834140486,1.1033741275582259e+18
1.0899999999999995e-06,116472742.54507706,-5408869970500.424,323.26589585032633,1.1326167010270806e+18
1.0999999999999994e-06,121125747.2205289,-5614032496445.929,323.45810864117095,1.1624802813775672e+18
1.1099999999999993e-06,125939456.95602095,-5826102167980.053,323.6494800014548,1.1929743590857336e+18
1.1199999999999992e-06,130918549.00680722,-6045280839635.956,323.84001333485327,1.2241084936117202e+18
1.1299999999999991e-06,136067808.577773,-6271775297873.972,324.02971215486815,1.2558923130424108e+18
1.139999999999999e-06,141392130.55421644,-6505797356731.361,324.2185800787435,1.2883355137346196e+18
1.149999999999999e-06,146896521.24572623,-6747563954834.218,324.4066208216227,1.3214478599590374e+18
1.1599999999999988e-06,152586100.14311433,-6997297253783.471,324.59383819093574,1.3552391835451535e+18
1.1699999999999988e-06,158466101.688365,-7255224737927.899,324.78023608100835,1.3897193835273603e+18
1.1799999999999987e-06,164541877.05756208,-7521579315536.503,324.96581846788433,1.4248984257924372e+18
1.1899999999999986e-06,170818895.95675892,-7796599421382.917,325.1505894043526,1.4607863427286036e+18
1.1999999999999985e-06,177302748.43075666,-8080529120754.288,325.3345530151712,1.4973932328763218e+18
1.2099999999999984e-06,183999146.6847586,-8373618214897.51,325.5177134924803,1.5347292605810225e+18
1.2199999999999983e-06,190913926.9188695,-8676122347915.328,325.70007509139793,1.5728046556479217e+18
1.2299999999999982e-06,198053051.1754113,-8988303115125.195,325.88164212579,1.6116297129990766e+18
1.239999999999998e-06,205422609.1990276,-9310428172893.469,326.06241896420914,1.6512147923328415e+18
1.249999999999998e-06,213028820.30955136,-9642771349958.09,326.2424100259957,1.691570317785855e+18
1.2599999999999979e-06,220878035.2876124,-9985612760252.195,326.4216197775339,1.7327067775976975e+18
1.2699999999999978e-06,228976738.2729622,-10339238917241.994,326.60005272865897,1.7746347237783442e+18
1.2799999999999977e-06,237331548.67549586,-10703942849791.455,326.77771342920755,1.817364771778532e+18
1.2899999999999976e-06,245949223.09895277,-11080024219567.217,326.95460646570774,1.8609076001631532e+18
1.2999999999999975e-06,254836657.27727872,-11467789439996.066,327.13073645820236,1.9052739502877798e+18
1.3099999999999974e-06,264000888.02363503,-11867551796789.156,327.30610805720124,1.9504746259784174e+18
1.3199999999999973e-06,273449095.1920402,-12279631570044.67,327.48072594075694,1.99652049321458e+18
1.3299999999999972e-06,283188603.65163356,-12704356157943.535,327.6545948116603,2.0434224798157699e+18
1.3399999999999971e-06,293226885.2735496,-13142060202050.027,327.82771939475015,2.091191575131442e+18
1.349999999999997e-06,303571560.9303957,-13593085714231.307,328.0001044343341,2.1398388297345234e+18
1.359999999999997e-06,314230402.50832564,-14057782205209.43,328.17175469171565,2.1893753551185567e+18
1.3699999999999968e-06,325211334.93170404,-14536506814757.727,328.3426749428236,2.2398123233985262e+18
1.3799999999999967e-06,336522438.2003585,-15029624443556.795,328.5128699759405,2.29116096701542e+18
1.3899999999999966e-06,348171949.43941665,-15537507886721.713,328.68234458952605,2.343432578444579e+18
1.3999999999999965e-06,360168264.9617286,-16060537969015.297,328.8511035901322,2.3966385099078774e+18
1.4099999999999965e-06,372519942.34287506,-16599103681759.914,329.0191517904061,2.4507901730897695e+18
1.4199999999999964e-06,385235702.5087647,-17153602321461.957,329.1864940071788,2.505899038857238e+18
1.4299999999999963e-06,398324431.83582354,-17724439630161.9,329.353135059635,2.5619766369836744e+18
1.4399999999999962e-06,411795184.26378316,-18312029937524.195,329.51907976756206,2.6190345558767094e+18
1.449999999999996e-06,425657183.4210737,-18916796304680.184,329.68433294967497,2.6770844423100175e+18
1.459999999999996e-06,439919824.7628308,-19539170669837.69,329.8488994220146,2.736138001159109e+18
1.4699999999999959e-06,454592677.7215254,-20179593995671.203,330.01278399641603,2.7962069951411154e+18
1.4799999999999958e-06,469685487.8702277,-20838516418506.152,330.17599147904536,2.857303244558579e+18
1.4899999999999957e-06,485208179.0985181,-21516397399311.266,330.3385266690017,2.9194386270472494e+18
1.4999999999999956e-06,501170855.8010576,-22213705876512.26,330.50039435698193,2.9826250773278776e+18
1.5099999999999955e-06,517583805.0788334,-22930920420641.777,330.66159932400683,3.046874586962011e+18
1.5199999999999954e-06,534457498.9530955,-23668529390838.16,330.8221463402052,3.112199204111773e+18
1.5299999999999953e-06,551802596.5920007,-24427031093207.855,330.98204016365463,3.1786110333036196e+18
1.5399999999999952e-06,569629946.5499834,-25206933941064.938,331.1412855392763,3.246122235196054e+18
1.5499999999999951e-06,587950589.0198716,-26008756617062.21,331.2998871977825,3.3147450263512796e+18
1.559999999999995e-06,606775758.0977696,-26833028237227.336,331.4578498546743,3.384491679010773e+18
1.569999999999995e-06,626116884.0607274,-27680288516918.117,331.6151782092879,3.4553745208747494e+18
1.5799999999999948e-06,645985595.6572204,-28551087938711.723,331.77187694388743,3.5274059348854907e+18
1.5899999999999947e-06,666393722.4104626,-29445987922240.86,331.9279507228033,3.6005983590145085e+18
1.5999999999999946e-06,687353296.934577,-30365560995991.957,332.0834041916137,3.6749642860535117e+18
1.6099999999999945e-06,708876557.2636493,-31310390971079.242,332.23824197636776,3.7505162634091356e+18
1.6199999999999944e-06,730975949.1936901,-32281073117008.305,332.39246868284926,3.8272668929014047e+18
1.6299999999999943e-06,753664128.6375328,-33278214339445.02,332.54608889587894,3.9052288305658813e+18
1.6399999999999943e-06,776953963.9926958,-34302433360002.01,332.6991071786542,3.9844147864594627e+18
1.6499999999999942e-06,800858538.5222349,-35354360898058.57,332.8515280721247,4.064837524469785e+18
1.659999999999994e-06,825391152.748618,-36434639854627.72,333.00335609440276,4.1465098621281807e+18
1.669999999999994e-06,850565326.8606498,-37543925498284.56,333.1545957402068,4.229444670426153e+18
1.6799999999999939e-06,876394803.133478,-38682885653171.914,333.30525148033706,4.3136548736353085e+18
1.6899999999999938e-06,902893548.361711,-39852200889094.12,333.45532776118245,4.39915344913071e+18
1.6999999999999937e-06,930075756.3056802,-41052564713717.79,333.60482900425654,4.485953427217584e+18
1.7099999999999936e-06,957955850.1508775,-42284683766891.42,333.7537596057628,4.5740678909613414e+18
1.7199999999999935e-06,986548484.9806025,-43549278017098.2,333.90212393618697,4.663509976020853e+18
1.7299999999999934e-06,1015868550.2618504,-44847080960058.55,334.049926339916,4.754292870484919e+18
1.7399999999999933e-06,1045931172.3444756,-46178839819493.875,334.19717113488286,4.846429814711902e+18
1.7499999999999932e-06,1076751716.973666,-47545315750070.41,334.34386261223534,4.939934101172419e+18
1.759999999999993e-06,1108345791.815759,-48947284042532.83,334.49000503602866,5.034819074295084e+18
1.769999999999993e-06,1140729248.9974384,-50385534331047.2,334.63560264294125,5.13109813031522e+18
1.779999999999993e-06,1173918187.6583443,-51860870802762.92,334.7806596420114,5.228784717126473e+18
1.7899999999999928e-06,1207928956.5171313,-53374112409613.16,334.9251802143959,5.327892334135288e+18
1.7999999999999927e-06,1242778156.4510143,-54926093082365.58,335.069168513148,5.428434532118172e+18
1.8099999999999926e-06,1278482643.088832,-56517661946938.5,335.21262866301555,5.530424913081691e+18
1.8199999999999925e-06,1315059529.4176698,-58149683542997.766,335.35556476025704,5.633877130125135e+18
1.8299999999999924e-06,1352526188.4030762,-59823038044849.67,335.49798087247626,5.738804887305794e+18
1.8399999999999923e-06,1390900255.6229072,-61538621484642.82,335.63988103847345,5.845221939506778e+18
1.8499999999999922e-06,1430199631.9148395,-63297345977896.21,335.78126926811365,5.953142092307332e+18
1.8599999999999921e-06,1470442486.0375865,-65100139951365.66,335.92214954221026,6.062579201855559e+18
1.869999999999992e-06,1511647257.3458538,-66947948373267.53,336.06252581242467,6.173547174743514e+18
1.879999999999992e-06,1553832658.4790728,-68841732985869.22,336.20240200117945,6.286059967884595e+18
1.8899999999999919e-06,1597017678.063948,-70782472540465.12,336.34178200158647,6.400131588393177e+18
1.8999999999999918e-06,1641221583.4308558,-72771163034753.97,336.48066967738816,6.515776093466405e+18
1.909999999999992e-06,1686463923.344131,-74808817952627.69,336.61906886291155,6.633007590268116e+18
1.9199999999999918e-06,1732764530.7462792,-76896468506391.3,336.75698336303486,6.751840235814809e+18
1.9299999999999917e-06,1780143525.5161502,-79035163881427.48,336.8944169531659,6.872288236863591e+18
1.9399999999999916e-06,1828621317.24111,-81225971483318.39,337.0313733792318,6.994365849802078e+18
1.9499999999999915e-06,1878218608.0032504,-83469977187445.22,337.1678563576798,7.118087380540133e+18
1.9599999999999914e-06,1928956395.1796677,-85768285591073.83,337.30386957548825,7.243467184403438e+18
1.9699999999999913e-06,1980855974.2568524,-88122020267946.64,337.4394166901876,7.370519666028788e+18
1.979999999999991e-06,2033938941.6592236,-90532324025394.11,337.5745013298914,7.499259279261096e+18
