t(s),Adsorbed H on surface 1 (H m-2),solute flux surface 1 (H m-2 s-1),Total T surface 1 (K),0 value at [0] (H m-3)
1e-10,216.0397830053532,-72652365778.50952,300.1558570382785,8282776553814.283
2e-10,644.0184567242576,-157148339782.42453,300.2393854578803,16373069126667.797
3e-10,1279.1620770126333,-252844719275.3979,300.30642422214305,24256630337556.387
4e-10,2116.640257530918,-359324137221.7426,300.3661123431249,31934862363845.18
5e-10,3151.702745429222,-476213877854.5891,300.4218306693415,39412658932756.16
6e-10,4379.739906256047,-603169951340.9468,300.4752558295865,46696477801458.28
7e-10,5796.313597891496,-739871489948.065,300.5273639814726,53793542702767.61
7.999999999999999e-10,7397.173832864085,-886018198782.3815,300.5787859317987,60711450452413.12
8.999999999999999e-10,9178.267748636454,-1041328963451.1782,300.6299610741652,67457955963698.35
9.999999999999999e-10,11135.744086667559,-1205540968406.5164,300.6812136662554,74040846444569.9
1.1e-09,13265.954919747484,-1378409068413.5393,300.73279441529957,80467864696025.7
1.2e-09,15565.45564614726,-1559705299156.189,300.7849048432145,86746661396774.14
1.3e-09,18031.00388209143,-1749218472709.0293,300.83771239104357,92884765441450.45
1.4000000000000001e-09,20659.557662244064,-1946753830689.4744,300.89136021876675,98889566007134.55
1.5000000000000002e-09,23448.273223973578,-2152132741024.5762,300.94597380725696,104768302500217.1
1.6000000000000003e-09,26394.50256681291,-2365192430955.902,301.00166554920605,110528059944781.89
1.7000000000000003e-09,29495.790923534012,-2585785752459.819,301.05853802958484,116175768213614.78
1.8000000000000004e-09,32749.874242360853,-2813780978215.309,301.11668642583317,121718204023852.77
1.9000000000000005e-09,36154.676754513624,-3049061627361.2256,301.1762003010456,127161994953502.56
2.0000000000000005e-09,39708.308683560776,-3291526320937.1934,301.2371649689064,132513624955932.06
2.1000000000000006e-09,43409.06414049281,-3541088667302.3154,301.29966255034844,137779440999258.19
2.2000000000000007e-09,47255.419239442235,-3797677178086.3086,301.3637728043069,142965660561569.25
2.3000000000000007e-09,51246.030462518655,-4061235215412.3496,301.42957379028076,148078379786664.88
2.400000000000001e-09,55379.73329760779,-4331720971275.4893,301.49714240387084,153123582158303.88
2.500000000000001e-09,59655.54116971991,-4609107480086.934,301.5665548151497,158107147590188.3
2.600000000000001e-09,64072.64468423359,-4893382665515.773,301.6378868318346,163034861858300.44
2.700000000000001e-09,68630.41119892953,-5184549422882.952,301.7112142036518,167912426324603.78
2.800000000000001e-09,73328.38474087944,-5482625738493.481,301.7866128802677,172745467918481.72
2.900000000000001e-09,78166.28628392602,-5787644847434.971,301.8641592322374,177539549355994.44
3.0000000000000012e-09,83144.01440257543,-6099655431525.98,301.9439302422652,182300179588071.88
3.1000000000000013e-09,88261.64631856157,-6418721859268.986,302.02600367245833,187032824477828.75
3.2000000000000014e-09,93519.43935708799,-6744924469850.82,302.11045821204084,191742917714815.66
3.3000000000000014e-09,98917.83283077803,-7078359903441.316,302.19737360906817,196435871980594.0
3.4000000000000015e-09,104457.45037064786,-7419141480269.077,302.2868307889696,201117090385837.9
3.5000000000000016e-09,110139.1027249483,-7767399631204.569,302.37891196219334,205791978204452.44
3.6000000000000016e-09,115963.79104849629,-8123282382857.194,302.4737007227954,210465954935132.06
3.7000000000000017e-09,121932.71070713621,-8486955900496.844,302.5712821394736,215144466725516.22
3.800000000000002e-09,128047.25562424194,-8858605092444.496,302.6717428402766,219832999198744.4
3.900000000000002e-09,134309.0231987025,-9238434279943.752,302.7751710920006,224537090726877.62
4.000000000000002e-09,140719.81982664362,-9626667936929.537,302.88165687511474,229262346200420.38
4.100000000000002e-09,147281.66706224246,-10023551504554.861,302.9912919549115,234014451348136.03
4.200000000000002e-09,153996.80845641677,-10429352285826.6,303.1041699494679,238799187666563.6
4.300000000000002e-09,160867.71711594108,-10844360426240.887,303.2203863949059,243622448024196.8
4.400000000000002e-09,167897.10402969067,-11268889986904.588,303.3400388083651,248490253011239.56
4.500000000000002e-09,175087.9272132779,-11703280117286.248,303.4632267490359,253408768112287.44
4.600000000000002e-09,182443.40172836464,-12147896335466.4,303.5900518775501,258384321786270.44
4.700000000000002e-09,189967.01063845723,-12603131924560.035,303.72061801397746,263423424545607.7
4.8000000000000024e-09,197662.51696906783,-13069409454872.922,303.8550311946456,268532789134859.7
4.9000000000000025e-09,205533.97674682082,-13547182442338.2,303.99339972796287,273719351918305.16
5.0000000000000026e-09,213585.75319945943,-14036937154871.854,304.13583424940225,278990295595915.53
5.100000000000003e-09,221822.53220684367,-14539194579497.787,304.2824477757798,284353073378271.44
5.200000000000003e-09,230249.33910201053,-15054512564440.05,304.43335575894156,289815434763165.0
5.300000000000003e-09,238871.55693128766,-15583488151878.262,304.5886761389574,295385453070111.94
5.400000000000003e-09,247694.9462934186,-16126760118729.646,304.74852939690567,301071554903896.6
5.500000000000003e-09,256725.66688979568,-16685011744680.596,304.91303860732086,306882551734763.56
5.600000000000003e-09,265970.3009313401,-17258973828763.463,305.0823294903646,312827673801128.3
5.700000000000003e-09,275435.8785624715,-17849427978090.71,305.25653046377306,318916606560934.0
5.800000000000003e-09,285129.90547915,-18457210194946.387,305.43577269462367,325159529940239.8
5.900000000000003e-09,295060.3929363417,-19083214791331.875,305.62019015095916,331567160652576.56
6.000000000000003e-09,305235.89036068175,-19728398663306.45,305.80991965329866,338150797890322.3
6.100000000000003e-09,315665.52080683765,-20393785961102.12,306.00510092606214,344922372720181.7
6.200000000000003e-09,326359.0195213877,-21080473195074.242,306.2058766489276,351894501549160.25
6.3000000000000035e-09,337326.77590625687,-21789634822138.207,306.41239250813777,359080544065639.44
6.4000000000000035e-09,348579.8792052508,-22522529362502.84,306.6247972477686,366494666102751.7
6.500000000000004e-09,360130.1682724167,-23280506102321.38,306.84324272096717,374151907918764.56
6.600000000000004e-09,371990.2858203073,-24065012444431.668,307.0678839411662,382068258442221.44
6.700000000000004e-09,384173.73759026465,-24877601976746.684,307.2988791332764,390260736088834.44
6.800000000000004e-09,396694.9569361802,-25719943336206.27,307.53638978485776,398747476823372.25
6.900000000000004e-09,409569.3753685278,-26593829955641.617,307.780580697267,407547830213897.75
7.000000000000004e-09,422813.4996675826,-27501190791592.57,308.03162003677687,416682464308715.5
7.100000000000004e-09,436444.9962445494,-28444102143231.312,308.28967938566063,426173480259387.75
7.200000000000004e-09,450482.7835078452,-29424800686291.715,308.55493379323417,436044537717502.9
7.300000000000004e-09,464947.13308019954,-30445697861513.543,308.82756182684426,446320992149959.1
7.400000000000004e-09,479859.7808118963,-31509395774868.652,309.1077456227931,457030045349066.06
7.500000000000004e-09,495244.0486479288,-32618704787046.008,309.395670937184,468200910561636.1
7.600000000000004e-09,511124.97853384994,-33776662992715.23,309.6915271966753,479864993827640.5
7.700000000000003e-09,527529.4796887034,-34986557816376.934,309.9955075491255,492056093306377.94
7.800000000000002e-09,544486.4907359626,-36251949981647.7,310.30780891411246,504810618579302.5
7.900000000000001e-09,562027.1583675686,-37576700145185.01,310.6286320333087,518167832156886.4
8e-09,580185.0344250556,-38964998525804.45,310.95818152069273,532170115685853.56
8.1e-09,598996.2935189422,-40421397904456.52,311.2966659125754,546863263657022.6
8.199999999999999e-09,618499.9735771945,-41950850422522.71,311.64429771742056,562296807757693.25
8.299999999999998e-09,638738.2420203798,-43558748665415.73,312.00129346543554,578524375401519.4
8.399999999999997e-09,659756.6906106588,-45250971586976.07,312.3678737579091,595604086409515.9
8.499999999999997e-09,681604.6624203861,-47033935909089.49,312.7442633162715,613598992315523.2
8.599999999999996e-09,704335.6148212029,-48914653722010.84,313.13069103085036,632577563336512.5
8.699999999999995e-09,728007.5229147171,-50900797116073.99,313.52739000929705,652614228692181.8
8.799999999999994e-09,752683.3284211273,-53000770797124.06,313.93459762465477,673789976690494.4
8.899999999999994e-09,778431.4397240931,-55223793778905.64,314.35255556304077,696193021828912.4
8.999999999999993e-09,805326.2895522711,-57579991409013.55,314.78150987091334,719919547109854.2
9.099999999999992e-09,833448.9576759852,-60080499174703.555,315.2217110018939,745074530850345.0
9.199999999999991e-09,862887.867029853,-62737579955388.67,315.67341386311267,771772668499598.5
9.29999999999999e-09,893739.5628603131,-65564756645369.77,316.13687786104765,800139401387063.2
9.39999999999999e-09,926109.585865982,-68576962369590.164,316.61236694682304,830312065933575.5
9.499999999999989e-09,960113.451878022,-71790710864485.53,317.10014966093615,862441178700055.8
9.599999999999988e-09,995877.7524516343,-75224290004210.19,317.6004991773772,896691874756933.6
9.699999999999988e-09,1033541.3928488446,-78897981930269.16,318.1136933471088,933245519273997.5
9.799999999999987e-09,1073256.9863343753,-82834313802447.22,318.6400147408701,972301515002067.6
9.899999999999986e-09,1115192.426536421,-87058343845916.06,319.1797506912689,1014079331499826.2
9.999999999999985e-09,1159532.6629083033,-91597988141420.72,319.7331933341268,1058820785615268.2
1.0099999999999985e-08,1206481.708142707,-96484394513860.44,320.3006396490394,1106792606936032.4
1.0199999999999984e-08,1256264.9108289224,-101752370944966.7,320.8823914991143,1158289326762902.8
1.0299999999999983e-08,1309131.5318131887,-107440877198749.42,321.4787556698492,1213636534737083.0
1.0399999999999982e-08,1365357.6687505299,-113593589840628.5,322.09004390711056,1273194553682010.0
1.0499999999999982e-08,1425249.5803745969,-120259552596768.88,322.7165729541743,1337362590641913.2
1.059999999999998e-08,1489147.4702391042,-127493926092052.94,323.3586645877884,1406583430672376.8
1.069999999999998e-08,1557429.7993131282,-135358853487103.22,324.0166456532173,1481348749850208.5
1.079999999999998e-08,1630518.2080953387,-143924461483648.0,324.690848098227,1562205135440178.0
1.0899999999999978e-08,1708883.142149537,-153270019676014.7,325.38160900597,1649760914441142.8
1.0999999999999978e-08,1793050.2905132258,-163485285406631.88,326.0892706267278,1744693907134173.2
1.1099999999999977e-08,1883607.9647185516,-174672066270667.0,326.8141804084694,1847760240122733.5
1.1199999999999976e-08,1981215.5676993323,-186946038373417.88,327.556691026183,1959804374102631.5
1.1299999999999975e-08,2086613.3272464306,-200438865572905.62,328.3171604099372,2081770525712316.2
1.1399999999999975e-08,2200633.4986428046,-215300673481014.34,329.0959517716298,2214715690861487.5
1.1499999999999974e-08,2324213.276528617,-231702942243363.56,329.8934336303792,2359824509587069.5
1.1599999999999973e-08,2458409.6979578035,-249841894428686.16,330.7099798365148,2518426250527808.5
1.1699999999999972e-08,2604416.868260439,-269942469168861.53,331.54596959412186,2692014237468163.0
1.1799999999999972e-08,2763585.900221239,-292262991533057.94,332.4017874820972,2882268092170145.0
1.1899999999999971e-08,2937448.027028203,-317100667643778.44,333.27782347366855,3091079228173702.5
1.199999999999997e-08,3127741.4326084657,-344798062044296.44,334.1744729543354,3320580100918481.5
1.209999999999997e-08,3336442.4419670636,-375750745279874.9,335.09213673818306,3573177802210756.0
1.2199999999999969e-08,3565801.8321334436,-410416337753504.6,336.0312210825264,3851592683840957.0
1.2299999999999968e-08,3818387.1651083343,-449325222126428.4,336.9921377008367,4158902808543759.0
1.2399999999999967e-08,4097132.212391656,-493093252655822.1,337.9753037739059,4498595159432315.0
1.2499999999999966e-08,4405394.741825959,-542436858112812.0,338.9811419592022,4874624695017338.0
1.2599999999999966e-08,4747024.178347414,-598191018033061.9,340.0100803983709,5291482520064758.0
1.2699999999999965e-08,5126440.938962788,-661330693384694.9,341.06255272283477,5754274657735913.0
1.2799999999999964e-08,5548729.588769982,-732996416448258.6,342.13899805744666,6268813161473681.0
1.2899999999999963e-08,6019748.381135659,-814524895922796.9,343.2398610221505,6841721602799387.0
1.2999999999999963e-08,6546258.245847115,-907485678348512.0,344.3655917316007,7480557321689782.0
1.3099999999999962e-08,7136074.89193755,-1013725133728611.6,345.5166457926988,8193953239144930.0
1.3199999999999961e-08,7798248.4185759565,-1135419311479053.5,346.6934842999962,8991782518362341.0
1.329999999999996e-08,8543275.704269674,-1275137554615449.0,347.89657382892136,9885349935165406.0
1.339999999999996e-08,9383351.90378419,-1435919180398672.8,349.126386426783,1.0887614496097466e+16
1.3499999999999959e-08,10332668.662855785,-1621366053142394.2,350.3833996015047,1.201344864301332e+16
1.3599999999999958e-08,11407768.210850239,-1835754512715932.0,351.66809630804534,1.3279940328801582e+16
1.3699999999999957e-08,12627964.36953882,-2084170909307821.5,352.9809649324603,1.470674536705878e+16
1.3799999999999956e-08,14015843.793714695,-2372675967192207.5,354.3224992735581,1.6316498781211944e+16
1.3899999999999956e-08,15597863.524087999,-2708504402373503.5,355.6931985221084,1.8135295443922404e+16
1.3999999999999955e-08,17405064.292107344,-3100307706981015.5,357.09356723755604,2.019325215099483e+16
1.4099999999999954e-08,19473923.101609997,-3558449856944645.5,358.5241153221986,2.252516546946545e+16
1.4199999999999953e-08,21847373.584839948,-4095367986006618.0,359.9853579927822,2.5171282301295156e+16
1.4299999999999953e-08,24576028.68838336,-4726012907523476.0,361.4778157494732,2.8178203188593636e+16
1.4399999999999952e-08,27719647.63106854,-5468387892140596.0,363.0020143421631,3.159994204452083e+16
1.4499999999999951e-08,31348898.08954758,-6344208494927290.0,364.55848473406405,3.549917033421641e+16
1.459999999999995e-08,35547475.57527371,-7379711683620210.0,366.14776306255277,3.994867888114781e+16
1.469999999999995e-08,40414655.42045434,-8606649317917047.0,367.7703905972217,4.50330965895039e+16
1.4799999999999949e-08,46068369.245878845,-1.0063509503760998e+16,369.4269136950972,5.085091263521145e+16
1.4899999999999948e-08,52648917.92418975,-1.1797019916851194e+16,371.117883752984,5.751685730403203e+16
1.499999999999995e-08,60323457.720365666,-1.3864000383687312e+16,372.8438571568953,6.516470690349538e+16
1.509999999999995e-08,69291426.52439512,-1.633364848804437e+16,374.60539522853185,7.395059035370342e+16
1.519999999999995e-08,79791114.16783296,-1.929036256622288e+16,376.4030641687696,8.405688953618741e+16
1.5299999999999952e-08,92107626.31211504,-2.2837232207870616e+16,378.23743499811843,9.569684268522707e+16
1.5399999999999953e-08,106582547.25532416,-2.7100358598749404e+16,380.1090834941168,1.091199805598774e+17
1.5499999999999954e-08,123625675.62200636,-3.223420736968026e+16,382.01859012562284,1.246185494526316e+17
1.5599999999999954e-08,143729291.2336827,-3.842824711363349e+16,383.9665399839698,1.4253510400339978e+17
1.5699999999999955e-08,167485515.15272635,-4.591518998863726e+16,385.9535227109484,1.6327148716395712e+17
1.5799999999999956e-08,195607452.44885987,-5.498123008677762e+16,387.9801324235835,1.872994555298561e+17
1.5899999999999957e-08,228954964.20773652,-6.5978774597029384e+16,390.04696763567205,2.151732568485302e+17
1.5999999999999958e-08,268566108.5358592,-7.934228733972613e+16,392.15463117604895,2.4754452427682307e+17
1.609999999999996e-08,315695528.26903474,-9.560802042434342e+16,394.3037301035504,2.8517992062127706e+17
1.619999999999996e-08,371861356.1931589,-1.1543860563428597e+17,396.49487561864316,3.289820473919378e+17
1.629999999999996e-08,438902569.7048245,-1.39653722772111e+17,398.7286829716912,3.8001423045338125e+17
1.639999999999996e-08,519049171.84891325,-1.6926837026518154e+17,401.00577136783033,4.395299092271444e+17
1.6499999999999962e-08,615008124.1484882,-2.055406496953254e+17,403.32676386842195,5.090074931726748e+17
1.6599999999999963e-08,730068632.7284259,-2.5003146043733658e+17,405.692287289061,5.901917116493929e+17
1.6699999999999964e-08,868231222.6843472,-3.0467910812610394e+17,408.10297209411084,6.851426759636883e+17
1.6799999999999965e-08,1034366063.1296363,-3.718925923091328e+17,410.55945228773857,7.962941010035191e+17
1.6899999999999966e-08,1234407272.0318432,-4.5466829323687277e+17,413.06236530143127,9.265224049268562e+17
1.6999999999999967e-08,1475591491.4365509,-5.567359738270719e+17,415.61235187796416,1.0792287266301938e+18
1.7099999999999968e-08,1766750948.4103384,-6.827415109730131e+17,418.2100559518028,1.2584362812736896e+18
1.719999999999997e-08,2118673589.1943455,-8.384756460593574e+17,420.8561245259171,1.468905924663446e+18
1.729999999999997e-08,2544545797.1268897,-1.0311603918651514e+18,423.55120754498546,1.716273330325101e+18
1.739999999999997e-08,3060496805.993786,-1.2698076690247165e+18,426.2959577649724,2.0072118133380214e+18
1.749999999999997e-08,3686268355.6650157,-1.5656684153939548e+18,429.09103061905967,2.3496255796312013e+18
1.7599999999999972e-08,4446038597.628796,-1.9327949967141466e+18,431.93708407991386,2.752879058568498e+18
1.7699999999999973e-08,5369435979.012954,-2.3887454709660165e+18,434.83477851827513,3.2280690137291156e+18
1.7799999999999974e-08,6492787102.295955,-2.95546539933708e+18,437.78477655785156,3.7883473491548887e+18
1.7899999999999975e-08,7860652725.825258,-3.660391797156303e+18,440.78774292650456,4.4493039677950587e+18
1.7999999999999976e-08,9527718567.363201,-4.537834902658963e+18,443.84434430371243,5.229420732378546e+18
1.8099999999999977e-08,11561122924.127806,-5.630707233270344e+18,446.95524916430026,6.150609569327322e+18
1.8199999999999978e-08,14043321968.552494,-6.992686542696344e+18,450.1211276184242,7.238850093186855e+18
1.829999999999998e-08,17075616699.509539,-8.690920579982075e+18,453.3426512477999,8.524944869692705e+18
1.839999999999998e-08,20782493873.5958,-1.0809407956788304e+19,456.6204929381677,1.0045413646094653e+19
1.849999999999998e-08,25316967964.439205,-1.3453222143856806e+19,459.95532670798184,1.1843551633765734e+19
1.859999999999998e-08,30867153700.878006,-1.675378610078601e+19,463.34782753332235,1.39706813177684e+19
1.8699999999999982e-08,37664350715.634605,-2.0875455076181287e+19,466.79867116901835,1.6487632391009024e+19
1.8799999999999983e-08,45992985350.56601,-2.6023726869079294e+19,470.3085339659784,1.9466490381307896e+19
1.8899999999999984e-08,56202832197.5405,-3.245547495808889e+19,473.8780926847252,2.299266148866045e+19
1.8999999999999985e-08,68724032504.16,-4.049169358749989e+19,477.5080243051279,2.7167309225672344e+19
1.9099999999999986e-08,84085541753.94371,-5.053335903247142e+19,481.1990058323329,3.211022782516813e+19
1.9199999999999987e-08,102937778887.15462,-6.308115254107549e+19,484.95171409888627,3.796322823609237e+19
1.9299999999999988e-08,126080419979.69278,-7.875996352825713e+19,488.76682556305275,4.489412508742836e+19
1.939999999999999e-08,154496485998.42834,-9.83493032834647e+19,492.6450161033252,5.310142750238284e+19
1.949999999999999e-08,189394124985.5861,-1.228210179201245e+20,496.5869608091291,6.281985336362264e+19
1.959999999999999e-08,232257792628.61368,-1.5338600432244038e+20,500.5933337677223,7.432680586930341e+19
1.969999999999999e-08,284910902295.3321,-1.915520161128553e+20,504.6648078472913,8.794997331848264e+19
1.9799999999999992e-08,349592458923.4983,-2.3919511208189316e+20,508.80205447625013,1.0407623840056364e+20
1.9899999999999993e-08,429050725682.2615,-2.986478636121839e+20,513.005743418741,1.2316211225451522e+20
1.9999999999999994e-08,526657615873.73816,-3.728081199584162e+20,517.276542546346,1.4574594167083637e+20
2.0099999999999995e-08,646548276153.3134,-4.652729539249939e+20,521.6151176060135,1.724621755392949e+20
