t(s),Adsorbed H on surface 1 (H m-2),solute flux surface 1 (H m-2 s-1),Total T surface 1 (K),0 value at [0] (H m-3)
1e-08,2851.5555165820742,-2837408125.8110523,300.62561330465536,2006388001388959.2
2e-08,8991.729596866699,-6020147769.155134,301.27361281618107,4186121336245836.0
3.0000000000000004e-08,19054.105678924974,-9715683832.242682,302.07340247357035,6599349966991152.0
4e-08,33895.1551630913,-14103597292.336897,302.99445306006055,9310929094099160.0
5e-08,54643.15131195299,-19393752676.697502,304.0173032509323,1.239478884140009e+16
6e-08,82768.0879263099,-25841270651.31476,305.128017554654,1.59376334796501e+16
6.999999999999999e-08,120176.10220142372,-33762609215.282036,306.31592927410486,2.004271451296662e+16
7.999999999999999e-08,169334.5844402786,-43554784928.18194,307.57250550675786,2.483405531701016e+16
8.999999999999999e-08,233436.6956411544,-55719347550.26044,308.8907033485233,3.0461379155669816e+16
9.999999999999998e-08,316616.9707172759,-70892830397.50838,310.26457289599904,3.7105963001734776e+16
1.0999999999999998e-07,424233.3726880661,-89885751323.81451,311.6889967799183,4.498764643468477e+16
1.2e-07,563235.8611438749,-113732778946.12779,313.1595108743888,5.4373249737918616e+16
1.3e-07,742647.5592871032,-143757415933.65335,314.6721760630844,6.558669188562904e+16
1.4e-07,974192.3251885739,-181655526738.31326,316.22348360465867,7.902114524764352e+16
1.5000000000000002e-07,1273112.420338306,-229603314519.4571,317.8102834472257,9.515361904723278e+16
1.6000000000000003e-07,1659232.6001435826,-290397018156.8754,319.42972871400156,1.1456242812095347e+17
1.7000000000000004e-07,2158343.0435993075,-367633770263.013,321.07923189021966,1.3794807796207506e+17
1.8000000000000005e-07,2803993.9794450635,-465945881630.77686,322.7564296725556,1.66158182198199e+17
1.9000000000000006e-07,3639820.745979659,-591304492733.409,324.4591543602267,2.0021712550205843e+17
2.0000000000000007e-07,4722550.681528956,-751413313417.2736,326.1854102732352,2.4136129448239386e+17
2.1000000000000008e-07,6125884.319725096,-956219387778.2542,327.93335409411935,2.910808224147304e+17
2.200000000000001e-07,7945494.849846763,-1218575899016.7698,329.70127831443034,3.51168931834455e+17
2.300000000000001e-07,10305454.109045254,-1555102519175.783,331.48759716866226,4.237801131058783e+17
2.400000000000001e-07,13366473.407103065,-1987302419325.5378,333.29083458351244,5.1149854814902957e+17
2.500000000000001e-07,17336446.73294666,-2543012696016.8013,335.1096137766218,6.174183775404367e+17
2.600000000000001e-07,22483906.52024597,-3258287803157.721,336.9426482179142,7.452376171063679e+17
2.700000000000001e-07,29155153.107265178,-4179845089484.57,338.78873372612424,8.993677576769645e+17
2.800000000000001e-07,37796004.16943519,-5368239618751.124,340.64674151844724,1.0850613294901025e+18
2.9000000000000014e-07,48979336.62565851,-6901984486118.32,342.5156120662106,1.308559981251416e+18
3.0000000000000015e-07,63439868.89758355,-8882895863005.084,344.3943496367059,1.5772659132604654e+18
3.1000000000000016e-07,82117965.35073568,-11443022807811.566,346.28201742275314,1.8999398142092541e+18
3.2000000000000017e-07,106214648.19024576,-14753625239470.283,348.1777331785813,2.2869287818267868e+18
3.300000000000002e-07,137260487.62951916,-19036795337415.58,350.0806652942174,2.75042805768393e+18
3.400000000000002e-07,177201623.27585733,-24580485406206.82,351.99002925156066,3.3047807749638395e+18
3.500000000000002e-07,228506864.9237992,-31757918088418.883,353.90508441423685,3.9668203031478257e+18
3.600000000000002e-07,294300648.1134298,-41052624020271.52,355.82513111062025,4.756260173145866e+18
3.700000000000002e-07,378527600.14759225,-53090691462004.39,357.74950797541896,5.696136977628545e+18
3.800000000000002e-07,486155629.66016847,-68682239033261.914,359.67758952018835,6.813312060795267e+18
3.9000000000000024e-07,623425813.998143,-88874657035636.69,361.6087839072765,8.139038235494614e+18
4.0000000000000025e-07,798158953.3153037,-115020829874902.81,363.5425309051746,9.709598188768492e+18
4.1000000000000026e-07,1020130521.1873854,-148866381829244.12,365.4783000061552,1.1567021654085091e+19
4.2000000000000027e-07,1301527904.7867684,-192661016839133.12,367.41558868955144,1.375988883360009e+19
4.300000000000003e-07,1657506332.5337453,-249300293054466.47,369.35392081611786,1.6344227939854946e+19
4.400000000000003e-07,2106862776.3184392,-322505735523074.44,371.2928451407015,1.9384515085784375e+19
4.500000000000003e-07,2672850434.7833004,-417053105817366.94,373.2319339319781,2.295478507646626e+19
4.600000000000003e-07,3384160202.855481,-539060986261953.4,375.17078168932284,2.713986193675849e+19
4.700000000000003e-07,4276099862.7818418,-696354681349262.1,377.1090039480168,3.203671823628847e+19
4.800000000000003e-07,5392006648.10593,-898923885919846.4,379.0462361649727,3.7755972437142266e+19
4.900000000000003e-07,6784934391.4167385,-1159496729712955.2,380.98213267801486,4.442353357958334e+19
5.000000000000003e-07,8519662728.21117,-1494257808511707.0,382.91636573249104,5.218240262648158e+19
5.100000000000003e-07,10675082852.999802,-1923743799078926.5,384.8486245696448,6.119463969698948e+19
5.200000000000003e-07,13347022170.5157,-2473957393993050.0,386.7786145717433,7.164350622355839e+19
5.300000000000003e-07,16651578914.889425,-3177748770316564.5,388.7060564594585,8.373579075310019e+19
5.400000000000003e-07,20729047481.947487,-4076523832539516.0,390.6306855374408,9.770432667291455e+19
5.500000000000003e-07,25748525890.97727,-5222350279279537.0,392.55225098441235,1.1381070956562257e+20
5.600000000000004e-07,31913308515.34066,-6680546393675178.0,394.47051518445636,1.3234822117650083e+20
5.700000000000004e-07,39467180044.198654,-8532853633881000.0,396.38525309648213,1.5364496610436586e+20
5.800000000000004e-07,48701740601.91514,-1.088131291307202e+16,398.29625165912165,1.7806722629823073e+20
5.900000000000004e-07,59964907091.11539,-1.3852986244037704e+16,400.20330922855686,2.0602303725304598e+20
6.000000000000004e-07,73670752164.0945,-1.7605690542591134e+16,402.1062350469953,2.379659884479685e+20
6.100000000000004e-07,90310859778.4706,-2.233493922046302e+16,404.00484873970566,2.743992490614373e+20
6.200000000000004e-07,110467395057.23164,-2.8282320156391896e+16,405.8989798387034,3.1587981833355094e+20
6.300000000000004e-07,134828106137.10518,-3.5745576135093904e+16,407.7884673313321,3.630229981357646e+20
6.400000000000004e-07,164203496823.48236,-4.509069632158443e+16,409.67315923213084,4.165070833622836e+20
6.500000000000004e-07,199546431129.2325,-5.676637523375805e+16,411.5529121765039,4.770782636920319e+20
6.600000000000005e-07,241974454095.22308,-7.132124943022586e+16,413.42759103482837,5.4555572810403755e+20
6.700000000000005e-07,292795137590.3352,-8.94243821764031e+16,415.2970685457385,6.228369612859022e+20
6.800000000000005e-07,353534784967.54504,-1.1188953310599826e+17,417.1612249674241,7.09903218782291e+20
6.900000000000005e-07,425970854390.69965,-1.3970382374639368e+17,419.0199477458628,8.078251654197064e+20
7.000000000000005e-07,512168487206.123,-1.7406149107516813e+17,420.8731311989901,9.177686592508245e+20
7.100000000000005e-07,614521554758.9448,-2.1640351032033235e+17,422.7206762158824,1.0410006610256226e+21
7.200000000000005e-07,735798664375.059,-2.6846396524363318e+17,424.56248997008953,1.1788952470598586e+21
7.300000000000005e-07,879194592661.2834,-3.323241493112566e+17,426.3984856463223,1.332939701379589e+21
7.400000000000005e-07,1048387641623.0616,-4.1047549452431155e+17,428.2285821797471,1.504740661220475e+21
7.500000000000005e-07,1247603440157.9495,-5.058925462116037e+17,430.0527040071967,1.6960302884014092e+21
7.600000000000006e-07,1481685740047.665,-6.221173316188845e+17,431.8707808296501,1.9086724378223593e+21
7.700000000000006e-07,1756174781436.2515,-7.633566073704389e+17,433.68274738537707,2.1446687934045052e+21
7.800000000000006e-07,2077393827747.7512,-9.345936153956628e+17,435.48854323318375,2.406164941243156e+21
7.900000000000006e-07,2452544493876.3047,-1.141716128119613e+18,437.2881125452307,2.695456349623718e+21
8.000000000000006e-07,2889811514104.988,-1.391662720868419e+18,439.08140390893067,3.0149942258969157e+21
8.100000000000006e-07,3398477617430.9556,-1.6925893716330312e+18,440.86837013745975,3.3673912210542973e+21
8.200000000000006e-07,3989049197677.4424,-2.054058654502763e+18,442.6489680884504,3.755426954214521e+21
8.300000000000006e-07,4673393483877.515,-2.4872539620009446e+18,444.4231584904556,4.1820533311419565e+21
8.400000000000006e-07,5464887932881.445,-3.005221361860021e+18,446.19090577680254,4.6503996333788795e+21
8.500000000000006e-07,6378582580976.925,-3.6231418639588434e+18,447.9521779264731,5.163777357577158e+21
8.600000000000007e-07,7431376104577.893,-4.358637041593166e+18,449.7069463116736,5.725684788148934e+21
8.700000000000007e-07,8642206351846.383,-5.232111116251144e+18,451.45518555177256,6.339811290389791e+21
8.800000000000007e-07,10032256117631.934,-6.267132774847006e+18,453.1968733733053,7.010041315720309e+21
8.900000000000007e-07,11625174943570.953,-7.490860141124853e+18,454.9319904757615,7.740458115587657e+21
9.000000000000007e-07,13447317733866.492,-8.934512466885486e+18,456.66052040288633,8.535347165799153e+21
9.100000000000007e-07,15528000985502.615,-1.0633892242063299e+19,458.3824494192422,9.399199308543556e+21
9.200000000000007e-07,17899777439821.74,-1.2629961543829682e+19,460.0977663917914,1.0336713625000064e+22
9.300000000000007e-07,20598729970934.43,-1.4969476552296008e+19,461.8064626762715,1.1352800057136498e+22
9.400000000000007e-07,23664785535800.33,-1.7705684252686246e+19,463.5085320081515,1.2452581802944886e+22
9.500000000000008e-07,27142050021500.18,-2.0899085419913617e+19,465.2039703979623,1.3641397514836323e+22
9.600000000000008e-07,31079164837709.633,-2.461826804045299e+19,466.8927760308111,1.4924803336095807e+22
9.700000000000007e-07,35529686117180.33,-2.894081536766816e+19,468.57494916989606,1.6308574815058037e+22
9.800000000000006e-07,40552487404613.06,-3.3954292830063116e+19,470.25049206384807,1.7798708740886752e+22
9.900000000000005e-07,46212186735120.37,-3.975731801735073e+19,471.91940885773516,1.9401424948406604e+22
1.0000000000000004e-06,52579599027925.02,-4.646071795719316e+19,473.5817055075726,2.112316814224176e+22
1.0100000000000003e-06,59732214749368.766,-5.41887778667309e+19,475.23738969819186,2.297060979246436e+22
1.0200000000000002e-06,67754705831976.97,-6.308058551868781e+19,476.88647076432466,2.4950650154968924e+22
1.03e-06,76739459873418.69,-7.32914753033478e+19,478.52895961477043,2.7070420469805427e+22
1.04e-06,86787143680791.17,-8.499457599673659e+19,480.1648686595176,2.9337285389682395e+22
1.05e-06,98007297271711.31,-9.838246616386624e+19,481.79421173969695,3.1758845688775753e+22
1.0599999999999998e-06,110518959494061.64,-1.1366894103603325e+20,483.4170040602528,3.4342941298855695e+22
1.0699999999999997e-06,124451326480644.7,-1.3109089460514121e+20,485.03326212521915,3.709765471560476e+22
1.0799999999999996e-06,139944444213055.16,-1.5091032057816714e+20,486.6430036754973,4.003131481290378e+22
1.0899999999999995e-06,157149936530275.1,-1.734164357334529e+20,488.2462476290331,4.315250109689085e+22
1.0999999999999994e-06,176231769981218.72,-1.9892792911968466e+20,489.8430140232991,4.647004842485883e+22
1.1099999999999993e-06,197367056985977.38,-2.2779534044017744e+20,491.43332395998874,4.999305220667541e+22
1.1199999999999992e-06,220746898837048.3,-2.6040357087121008e+20,493.0171995518366,5.3730874098534175e+22
1.1299999999999991e-06,246577270138497.2,-2.9717452947501364e+20,494.5946638714797,5.769314819063479e+22
1.139999999999999e-06,275079946346894.06,-3.385699182867341e+20,496.165740902281,6.188978768201782e+22
1.149999999999999e-06,306493476142030.44,-3.850941590808186e+20,497.7304554910385,6.63309920274222e+22
1.1599999999999988e-06,341074200416930.4,-4.372974647560472e+20,499.2888333025064,7.102725453287069e+22
1.1699999999999988e-06,379097319734589.6,-4.957790582195379e+20,500.84090077565946,7.598937036889444e+22
1.1799999999999987e-06,420858012152337.1,-5.611905415976721e+20,502.38668508163283,8.122844496305163e+22
1.1899999999999986e-06,466672603362903.94,-6.342394185548949e+20,503.92621408327386,8.6755902726826e+22
1.1999999999999985e-06,516879791143488.0,-7.156927724579311e+20,505.45951629624403,9.258349606624914e+22
1.2099999999999984e-06,571841926139702.2,-8.063811030812892e+20,506.9866208516129,9.872331462078414e+22
1.2199999999999983e-06,631946351039798.8,-9.072023245073859e+20,508.50755745988755,1.0518779467123171e+23
1.2299999999999982e-06,697606800215605.0,-1.0191259268289e+21,510.02235637642315,1.1198972865472803e+23
1.239999999999998e-06,769264861919974.9,-1.1431973042089765e+21,511.53104836816385,1.191422747233371e+23
1.249999999999998e-06,847391505136149.4,-1.2805422517940448e+21,513.0336646816633,1.266589662822943e+23
1.2599999999999979e-06,932488673172304.2,-1.4323716339012356e+21,514.5302370123376,1.3455372144461294e+23
1.2699999999999978e-06,1025090946084904.1,-1.5999862258149913e+21,516.0207974749064,1.4284085234046665e+23
1.2799999999999977e-06,1125767273997588.8,-1.7847817314227522e+21,517.5053785749751,1.5153507422242512e+23
1.2899999999999976e-06,1235122783358590.2,-1.9882539787953035e+21,518.9840131817193,1.6065151431115666e+23
1.2999999999999975e-06,1353800658149599.8,-2.2120042956711673e+21,520.4567345016299,1.702057203304882e+23
1.3099999999999974e-06,1482484098023115.0,-2.4577450666346084e+21,521.9235760532782,1.8021366868560297e+23
1.3199999999999973e-06,1621898355304208.0,-2.727305473582094e+21,523.3845716430677,1.906917722435138e+23
1.3299999999999972e-06,1772812852746949.0,-3.022637420851037e+21,524.8397553419325,2.0165688768061938e+23
1.3399999999999971e-06,1936043383886007.5,-3.3458216461367467e+21,526.2891614629509,2.1312632236798625e+23
1.349999999999997e-06,2112454397770800.0,-3.699074018048397e+21,527.732824539839,2.2511784077084562e+23
1.359999999999997e-06,2302961369813500.0,-4.0847520208523535e+21,529.1707793062941,2.3764967034452124e+23
1.3699999999999968e-06,2508533260423687.5,-4.505361426621354e+21,530.6030606761559,2.507405069144635e+23
1.3799999999999967e-06,2730195063041794.5,-4.963563154651093e+21,532.0297037243569,2.6440951953316492e+23
1.3899999999999966e-06,2969030443121050.5,-5.46218031762284e+21,533.4507436686331,2.786763548113474e+23
1.3999999999999965e-06,3226184330927325.0,-6.004204469887348e+21,534.8662158519684,2.935611374986153e+23
1.4099999999999965e-06,3502866138389599.5,-6.592805821222309e+21,536.2761557257447,3.090844819022151e+23
1.4199999999999964e-06,3800352307939455.0,-7.231338166803045e+21,537.6805988335759,3.2526748805305894e+23
1.4299999999999963e-06,4119989447674226.5,-7.923347518617036e+21,539.079580795796,3.4213174566457546e+23
1.4399999999999962e-06,4463197445959565.0,-8.672580061887278e+21,540.473137294584,3.596993359154821e+23
1.449999999999996e-06,4831472684863396.0,-9.48299028557601e+21,541.8613040596985,3.7799283275399395e+23
1.459999999999996e-06,5226391353480870.0,-1.0358749283042724e+22,543.2441168548012,3.970353037356214e+23
1.4699999999999959e-06,5649612862128944.0,-1.1304253218339034e+22,544.6216114643506,4.168503104062214e+23
1.4799999999999958e-06,6102883358303849.0,-1.2324131953004123e+22,545.9938236810422,4.3746190824093817e+23
1.4899999999999957e-06,6588039345204190.0,-1.3423257827573278e+22,547.3607892937785,4.588946461481312e+23
1.4999999999999956e-06,7107011403525944.0,-1.4606754591329086e+22,548.7225440761483,4.811735655454192e+23
1.5099999999999955e-06,7661828017132374.0,-1.5880006473105487e+22,550.0791237753991,5.0432419901262774e+23
1.5199999999999954e-06,8254619503090868.0,-1.7248667385196351e+22,551.4305641018816,5.283725685237774e+23
1.5299999999999953e-06,8887622046449128.0,-1.871867025162193e+22,552.7769007189546,5.5334518325735405e+23
1.5399999999999952e-06,9563181839993910.0,-2.0296236451158643e+22,554.1181692333289,5.7926903698102133e+23
1.5499999999999951e-06,1.0283759329095818e+16,-2.1987885364645154e+22,555.4544051858383,6.06171605003725e+23
1.559999999999995e-06,1.1051933561592356e+16,-2.380044401512759e+22,556.7856440426207,6.340808406848399e+23
1.569999999999995e-06,1.1870406642497672e+16,-2.574105678840122e+22,558.1119211866951,6.630251714866729e+23
1.5799999999999948e-06,1.2742008293150124e+16,-2.7817195220438027e+22,559.433271909921,6.930334945533076e+23
1.5899999999999947e-06,1.366970051421696e+16,-3.0036667837054875e+22,560.749731405326,7.24135171795431e+23
1.5999999999999946e-06,1.4656582351767992e+16,-3.2407630029970777e+22,562.0613347597878,7.563600244575427e+23
1.6099999999999945e-06,1.570589476540623e+16,-3.4938593952123635e+22,563.3681169470611,7.897383271407123e+23
1.6199999999999944e-06,1.6821025597201726e+16,-3.763843841375326e+22,564.6701128211325,8.243008012509159e+23
1.6299999999999943e-06,1.8005514639914648e+16,-4.0516418759317365e+22,565.9673571098959,8.600786078399288e+23
1.6399999999999943e-06,1.9263058802713416e+16,-4.358217670377151e+22,567.2598844091342,8.971033398027554e+23
1.6499999999999942e-06,2.059751737229272e+16,-4.684575010512478e+22,568.5477291767979,9.354070133926675e+23
1.659999999999994e-06,2.201291736697317e+16,-5.031758264846012e+22,569.8309257275697,9.750220590120938e+23
1.669999999999994e-06,2.3513458981017944e+16,-5.400853341479303e+22,571.1095082277036,1.0159813112348187e+24
1.6799999999999939e-06,2.510352111603123e+16,-5.792988630622247e+22,572.3835106901312,1.0583179980122431e+24
1.6899999999999938e-06,2.6787666995906716e+16,-6.2093359296802936e+22,573.6529669698228,1.1020657290137904e+24
1.6999999999999937e-06,2.857064986137123e+16,-6.651111347643736e+22,574.9179107593966,1.1472584830489283e+24
1.7099999999999936e-06,3.045741873971729e+16,-7.119576185285101e+22,576.1783755849647,1.1939305945157004e+24
1.7199999999999935e-06,3.2453124284837188e+16,-7.616037787435857e+22,577.4343948022097,1.2421167388181244e+24
1.7299999999999934e-06,3.4563124682159868e+16,-8.141850363367971e+22,578.6860015926815,1.291851916692302e+24
1.7399999999999933e-06,3.679299161254783e+16,-8.698415771049106e+22,579.9332289603083,1.3431714373786363e+24
1.7499999999999932e-06,3.914851626863426e+16,-9.287184260772828e+22,581.1761097281117,1.3961109005751183e+24
1.759999999999993e-06,4.163571541646846e+16,-9.909655173387216e+22,582.4146765351207,1.4507061771042648e+24
1.769999999999993e-06,4.426083749468988e+16,-1.0567377588057293e+23,583.6489618334762,1.5069933882239817e+24
1.779999999999993e-06,4.7030368742765304e+16,-1.1261950914198569e+23,584.8789978857181,1.5650088835103767e+24
1.7899999999999928e-06,4.9951039349100424e+16,-1.1995025421912609e+23,586.1048167622515,1.6247892172383815e+24
1.7999999999999927e-06,5.302982960907289e+16,-1.2768302704940007e+23,587.326450338981,1.6863711231840106e+24
1.8099999999999926e-06,5.627397608222992e+16,-1.358353606982418e+23,588.5439302951105,1.7497914877701256e+24
1.8199999999999925e-06,5.969097773704728e+16,-1.4442530844650812e+23,589.7572881111006,1.8150873214758698e+24
1.8299999999999924e-06,6.328860207075772e+16,-1.5347144600395002e+23,590.9665550667778,1.8822957284283095e+24
1.8399999999999923e-06,6.707489119082504e+16,-1.6299287277571816e+23,592.1717622395911,1.9514538740935174e+24
1.8499999999999922e-06,7.105816784366396e+16,-1.7300921210549005e+23,593.3729405030082,2.0225989509832144e+24
1.8599999999999921e-06,7.524704137518605e+16,-1.835406104154461e+23,594.5701205250484,2.0957681422923388e+24
1.869999999999992e-06,7.965041360668797e+16,-1.9460773515999717e+23,595.7633327669457,2.1709985833824646e+24
1.879999999999992e-06,8.427748460848994e+16,-2.062317715069069e+23,596.9526074819369,2.2483273210259683e+24
1.8899999999999919e-06,8.913775835258083e+16,-2.1843441765628588e+23,598.1379747141708,2.3277912703262865e+24
1.8999999999999918e-06,9.424104822433245e+16,-2.312378787049097e+23,599.3194642977343,2.4094271692305623e+24
1.909999999999992e-06,9.959748237210962e+16,-2.4466485896044355e+23,600.4971058557883,2.493271530552474e+24
