t(s),Adsorbed H on surface 1 (H m-2),solute flux surface 1 (H m-2 s-1),Total T surface 1 (K),0 value at [0] (H m-3)
1e-06,27004771.183707397,-393470097605.2588,300.47992420533296,1.9136492014424525e+17
2.05e-06,87773352.09496005,-986417176022.0704,300.9396052450516,4.01029343859593e+17
3.1525e-06,191527968.66410732,-1848774064829.7253,301.5420130831551,6.332889039073652e+17
4.310125e-06,351049022.64369494,-3088308615236.8447,302.2781879954762,8.948610593130811e+17
5.52563125e-06,584100787.4657626,-4863020997024.859,303.14518682119063,1.194210210021767e+18
6.8019128125e-06,915572247.9868665,-7407319836748.221,304.1429578913161,1.5422688216063493e+18
8.142008453125e-06,1380705498.4289117,-11073465391667.887,305.2731056293875,1.953398519566563e+18
9.54910887578125e-06,2030015046.3983076,-16398251366364.36,306.5382786743283,2.446716133508947e+18
1.1026564319570314e-05,2936876463.084065,-24211991387334.016,307.94182245503544,3.047952253252847e+18
1.2577892535548829e-05,4209385233.085491,-35819494115073.36,309.48755989491195,3.7920797568626514e+18
1.4206787162326272e-05,6009131894.706675,-53305412437421.09,311.1796399218566,4.727054041968836e+18
1.5917126520442588e-05,8581311752.600102,-80057695107204.67,313.0224240880211,5.919158915840317e+18
1.771298284646472e-05,12303534083.5213,-121676463532033.12,315.02008333048894,7.460608568653623e+18
1.9598631988787957e-05,17766142946.715298,-187586230890391.66,317.1772561980557,9.48060706619905e+18
2.1578563588227356e-05,25905672440.780712,-293921861469668.5,319.4985691267459,1.2161216704536877e+19
2.3657491767638723e-05,38228884749.272385,-468768100277602.44,321.98843272106916,1.5760177300041968e+19
2.584036635602066e-05,57192631774.88745,-761787660851240.6,324.6510959189947,2.064384657120594e+19
2.8132384673821694e-05,86853606818.70439,-1262084708259422.0,327.4905942317017,2.733477394803975e+19
3.053900390751278e-05,133988798541.12027,-2131616631864556.5,330.5106926910541,3.658055505820124e+19
3.306595410288842e-05,210042264057.5957,-3668068180764536.5,333.7148290484579,4.945384939345358e+19
3.571925180803284e-05,334531890033.8064,-6423654191063980.0,337.106058172299,6.7498450718344856e+19
3.850521439843448e-05,541052572731.0271,-1.1430102951752936e+16,340.686998187684,9.294407997064584e+19
4.143047511835621e-05,887927176486.4132,-2.062495744563077e+16,344.4597789932876,1.290245376522734e+20
4.4501998874274025e-05,1477230594665.2007,-3.765863217854558e+16,348.4259939587447,1.8045184824818332e+20
4.772709881798773e-05,2488985860369.0635,-6.941914272977442e+16,352.5866557837254,2.541253171473806e+20
5.111345375888712e-05,4242982356302.164,-1.2890374576975442e+17,356.9421576702489,3.6019183955639357e+20
5.4669126446831475e-05,7311047923769.242,-2.406051518770217e+17,361.49224111339976,5.13626324139672e+20
5.8402582769173055e-05,12721632186141.36,-4.5056239543725536e+17,366.23597174137024,7.365748316356025e+20
6.232271190763171e-05,22333296262753.734,-8.44999348607446e+17,371.1717247200256,1.0618071884550772e+21
6.64388475030133e-05,39516833513558.53,-1.5846340758695754e+18,376.29718126466776,1.537772908541993e+21
7.076078987816397e-05,70399814914551.48,-2.967300562912244e+18,381.6093377569183,2.2359593510336114e+21
7.529882937207217e-05,126132048110763.31,-5.54116232377121e+18,387.104528833964,3.261531323141503e+21
8.006377084067578e-05,226994602396290.25,-1.0307229033164542e+19,392.7784655906794,4.768602792814726e+21
8.506695938270958e-05,409818277219086.1,-1.9077653404995023e+19,398.626289707458,6.981995558499997e+21
9.032030735184505e-05,741297711740495.6,-3.510172473589256e+19,404.64264388950363,1.022794884692959e+22
9.583632271943731e-05,1341723038887778.2,-6.414565570373321e+19,410.82175848566897,1.4977037691033401e+22
0.00010162813885540918,2426942114669490.0,-1.1632898615598414e+20,417.1575535629958,2.1903451569000815e+22
0.00010770954579817965,4382604699644384.5,-2.092727875526367e+20,423.6508150925554,3.1972031204521945e+22
0.00011409502308808864,7891563927765327.0,-3.730906870031769e+20,430.28882118630116,4.653607747494806e+22
0.00012079977424249307,1.4152578969628318e+16,-6.58586202970334e+20,437.0646877041362,6.748017784555982e+22
0.00012783976295461773,2.5247636949762044e+16,-1.1499139289792234e+21,443.9723388737805,9.738505851444405e+22
0.00013523175110234862,4.474299401161948e+16,-1.9831662376888736e+21,451.0061031197019,1.3969312079883116e+23
0.00014299333865746606,7.863211740653771e+16,-3.370883958442152e+21,458.16081703079794,1.987940542738055e+23
0.00015114300559033938,1.3671100560754435e+17,-5.627220135549692e+21,465.4319581068227,2.798359422190424e+23
0.00015970015586985636,2.343298181157579e+17,-9.175674287683032e+21,472.8157720713635,3.879018371957304e+23
0.0001686851636633492,3.940698515583962e+17,-1.4502304656932775e+22,480.3093861809235,5.2616479598908806e+23
0.00017811942184651667,6.463218994485733e+17,-2.201729488668545e+22,487.91090382830737,6.932918692489917e+23
0.00018802539293884252,1.0276618041774062e+18,-3.1859793202599294e+22,495.6194770371815,8.820272446753292e+23
0.00019802539293884252,1.5503995302726218e+18,-4.334193044434094e+22,503.14242041715323,1.0743804075266902e+24
0.00020802539293884252,2.2227311172457654e+18,-5.581052652401449e+22,510.4253945995834,1.2612935149881377e+24
0.00021802539293884252,3.0487273989341276e+18,-6.883919430849242e+22,517.4862106581471,1.4419965721201525e+24
0.00022802539293884251,4.0240812116374467e+18,-8.221266208116587e+22,524.3413562746689,1.6204409628009727e+24
0.00023802539293884251,5.133595248702504e+18,-9.585560248935322e+22,531.0059784682597,1.80209456950287e+24
0.0002480253929388425,6.346930560363647e+18,-1.0974242362606957e+23,537.4939327025269,1.9913665260385194e+24
0.00025802539293884254,7.611957254283957e+18,-1.2359282352824883e+23,543.7443506760869,2.1870016871014787e+24
0.00026802539293884257,8.858258176560258e+18,-1.3744728254262458e+23,549.7967987393793,2.3864562031610497e+24
0.0002780253929388426,1.0003431871711764e+19,-1.514470235559416e+23,555.6840741280236,2.5821076758832265e+24
0.0002880253929388426,1.096580581693372e+19,-1.6578106988872053e+23,561.4242553085402,2.760418979613766e+24
0.00029802539293884264,1.168143625806001e+19,-1.806951870790985e+23,567.0306570249827,2.904899707438925e+24
0.00030802539293884267,1.211820086495572e+19,-1.9643566001935216e+23,572.5139649996408,3.0015003548509526e+24
0.0003180253929388427,1.2280429849650205e+19,-2.1316157638929477e+23,577.8831214993689,3.0438382705288946e+24
0.0003280253929388427,1.2202754415943086e+19,-2.3088580070695137e+23,583.1457988753708,3.034961935116378e+24
0.00033802539293884275,1.193740773393396e+19,-2.4948260424219723e+23,588.308690956497,2.9849322367253844e+24
0.0003480253929388428,1.1540994357752031e+19,-2.6874624330728754e+23,593.3777091794888,2.9065031891461693e+24
0.0003580253929388428,1.1064832125113807e+19,-2.8845741551148797e+23,598.3581230042547,2.811565650638973e+24
0.00036802539293884283,1.0550013306664155e+19,-3.0842779990661096e+23,603.2546650190096,2.7094133879530706e+24
0.00037802539293884285,1.0026320253893796e+19,-3.2851767643637274e+23,608.0716122687259,2.60648173040024e+24
0.0003880253929388429,9.513452667966857e+18,-3.4863519627226894e+23,612.8128507982002,2.5068108996894423e+24
0.0003980253929388429,9.023204155817529e+18,-3.687273159328112e+23,617.4819278917402,2.412687153611555e+24
0.00040802539293884293,8.561710104884362e+18,-3.8876892083337264e+23,622.0820950190447,2.3252082323803759e+24
0.00041802539293884296,8.131343203584884e+18,-4.087531548943624e+23,626.6163435882161,2.2447068445469452e+24
0.000428025392938843,7.732137699455458e+18,-4.286838627792927e+23,631.0874350221786,2.1710455739288658e+24
0.000438025392938843,7.362780873057318e+18,-4.485701170069556e+23,635.4979262824847,2.1038161612364628e+24
0.00044802539293884304,7.021266191811615e+18,-4.6842250692808795e+23,639.8501916940941,2.0424724077891028e+24
0.00045802539293884306,6.705304617929644e+18,-4.882508264318289e+23,644.1464417317585,1.9864173457083612e+24
0.0004680253929388431,6.412571828650113e+18,-5.08062825626373e+23,648.3887392873384,1.9350583338227773e+24
0.0004780253929388431,6.140847533755027e+18,-5.2786372777039095e+23,652.5790138314688,1.8878393949784497e+24
0.00048802539293884314,5.888085534896455e+18,-5.476562503233551e+23,656.7190738037089,1.8442576262992258e+24
0.0004980253929388432,5.652440689070162e+18,-5.674409137642108e+23,660.8106175017318,1.8038689511452913e+24
0.0005080253929388432,5.43227039490727e+18,-5.872164742577031e+23,664.8552426924075,1.7662872657762252e+24
0.0005180253929388432,5.226122293029382e+18,-6.069803701787518e+23,668.854455128589,1.7311799550695422e+24
0.0005280253929388432,5.032715665358624e+18,-6.26729120122483e+23,672.8096761239605,1.6982618034297884e+24
0.0005380253929388433,4.850921040174581e+18,-6.464586460834659e+23,676.7222493140863,1.6672885576907233e+24
0.0005480253929388433,4.67974047567997e+18,-6.66164518696764e+23,680.593446710994,1.6380508339352616e+24
0.0005580253929388433,4.518289689696726e+18,-6.858421336987878e+23,684.4244741419385,1.6103686858680676e+24
0.0005680253929388434,4.3657824314955484e+18,-7.054868333476823e+23,688.2164761494736,1.5840869290623648e+24
0.0005780253929388434,4.221517080459796e+18,-7.2509398663143e+23,691.9705404184664,1.5590711970359613e+24
0.0005880253929388434,4.084865267383049e+18,-7.446590400987181e+23,695.687701786392,1.5352046520315715e+24
0.0005980253929388434,3.9552622500999905e+18,-7.641775485466025e+23,699.3689458851521,1.5123852569035107e+24
0.0006080253929388435,3.8321987738914806e+18,-7.836451923536087e+23,703.015212456135,1.4905235164097813e+24
0.0006180253929388435,3.7152141730621957e+18,-8.030577862431643e+23,706.6273983748139,1.4695406059719716e+24
0.0006280253929388435,3.603890504639267e+18,-8.224112827330026e+23,710.2063604160371,1.4493668180757273e+24
0.0006380253929388435,3.4978475395200466e+18,-8.417017724345013e+23,713.7529177876107,1.4299402683577135e+24
0.0006480253929388436,3.3967384670814275e+18,-8.60925482592694e+23,717.2678544559915,1.4112058139617825e+24
0.0006580253929388436,3.300246195265405e+18,-8.800787747389063e+23,720.7519212851478,1.3931141456753798e+24
0.0006680253929388436,3.2080801496144384e+18,-8.991581419807797e+23,724.2058380071006,1.375621022711761e+24
0.0006780253929388436,3.1199734922011336e+18,-9.181602062276573e+23,727.6302950404171,1.3586866249730543e+24
0.0006880253929388437,3.0356808056490465e+18,-9.370817157367181e+23,731.0259551711563,1.3422750139763764e+24
0.0006980253929388437,2.9549755351921e+18,-9.559195419153712e+23,734.3934551090568,1.3263536173017144e+24
0.0007080253929388437,2.8776487464509885e+18,-9.746706775496956e+23,737.7334069302942,1.3108928919850276e+24
0.0007180253929388437,2.8035071001315046e+18,-9.933322346617475e+23,741.046399417154,1.295865937289259e+24
0.0007280253929388438,2.732371459659956e+18,-1.0119014422059134e+24,744.3329993034422,1.2812482029446744e+24
0.0007380253929388438,2.6640756069991276e+18,-1.0303756441693092e+24,747.5937524339125,1.2670172306102787e+24
0.0007480253929388438,2.5984650923981005e+18,-1.0487522977207e+24,750.8291848451574,1.2531524284827645e+24
0.0007580253929388439,2.5353962066160896e+18,-1.067028971378308e+24,754.0398037741044,1.2396348745362212e+24
0.0007680253929388439,2.4747350609677983e+18,-1.0852033431919463e+24,757.2260986004785,1.2264471442976804e+24
0.0007780253929388439,2.416356761972159e+18,-1.1032731989185662e+24,760.3885417282853,1.2135731596605032e+24
0.0007880253929388439,2.3601446691732367e+18,-1.1212364301784504e+24,763.527589411193,1.2009980557912511e+24
0.000798025392938844,2.3059897262842706e+18,-1.1390910325846784e+24,766.6436825263556,1.1887080636479505e+24
0.000808025392938844,2.2537898571509952e+18,-1.1568351038322269e+24,769.7372473003363,1.1766904060044216e+24
0.000818025392938844,2.2034494191669934e+18,-1.17446684174871e+24,772.8086959910474,1.1649332052015421e+24
0.000828025392938844,2.1548787077398444e+18,-1.1919845423010702e+24,775.8584275287958,1.1534254011044677e+24
0.0008380253929388441,2.1079935062282112e+18,-1.2093865975603033e+24,778.886828119511,1.1421566779697322e+24
0.0008480253929388441,2.0627146764724577e+18,-1.2266714936248504e+24,781.8942718128193,1.1311173991098968e+24
0.0008580253929388441,2.018967785642845e+18,-1.243837808509085e+24,784.8811210376143,1.1202985484019443e+24
0.0008680253929388441,1.976682765647812e+18,-1.2608842099954257e+24,787.8477271071429,1.1096916778126863e+24
0.0008780253929388442,1.9357936017904553e+18,-1.2778094534632503e+24,790.7944306960991,1.0992888602335722e+24
0.0008880253929388442,1.8962380477490186e+18,-1.2946123796914276e+24,793.72156229126,1.0890826470031751e+24
0.0008980253929388442,1.8579573642920512e+18,-1.3112919126423967e+24,796.6294426175485,1.0790660295825126e+24
0.0009080253929388442,1.820896079430273e+18,-1.3278470572399088e+24,799.5183830414647,1.0692324049190555e+24
0.0009180253929388443,1.7850017679631276e+18,-1.34427689713513e+24,802.3886859528961,1.059575544085981e+24
0.0009280253929388443,1.7502248485997678e+18,-1.360580592472879e+24,805.2406451269885,1.050089563842845e+24
0.0009380253929388443,1.7165183970297933e+18,-1.3767573776626796e+24,808.0745460673455,1.0407689008040314e+24
0.0009480253929388443,1.68383797349092e+18,-1.3928065591564985e+24,810.8906663316086,1.0316082879381838e+24
0.0009580253929388444,1.652141463531535e+18,-1.4087275132416419e+24,813.6892758406985,1.0226027331577531e+24
0.0009680253929388444,1.621388930800027e+18,-1.4245196838478727e+24,816.4706371725026,1.0137474997821944e+24
0.0009780253929388444,1.5915424808101898e+18,-1.440182580378363e+24,819.2350058412151,1.0050380886878924e+24
0.0009880253929388445,1.562566134737288e+18,-1.455715775560592e+24,821.9826305628728,9.964702219738281e+23
0.0009980253929388445,1.53442571239144e+18,-1.4711189033277252e+24,824.7137535082328,9.88039827997084e+23
0.0010080253929388445,1.5070887235981158e+18,-1.4863916567289513e+24,827.428610543555,9.797430276438244e+23
0.0010180253929388445,1.4805242672889626e+18,-1.5015337858717628e+24,830.1274314600172,9.71576121717937e+23
0.0010280253929388446,1.4547029376718182e+18,-1.516545095898693e+24,832.8104401924306,9.635355793421635e+23
0.0010380253929388446,1.4295967369075543e+18,-1.5314254450001204e+24,835.4778550278571,9.556180272774828e+23
0.0010480253929388446,1.4051789937739108e+18,-1.5461747424647361e+24,838.1298888046933,9.478202400764728e+23
0.0010580253929388446,1.3814242878435686e+18,-1.5607929467708943e+24,840.7667491028418,9.401391309957822e+23
0.0010680253929388447,1.3583083787464535e+18,-1.5752800637145607e+24,843.3886384252214,9.325717435979613e+23
0.0010780253929388447,1.3358081401236375e+18,-1.589636144582619e+24,845.9957543714319,9.251152439844775e+23
0.0010880253929388447,1.3139014979153708e+18,-1.6038612843638898e+24,848.5882898036388,9.177669136020876e+23
0.0010980253929388447,1.2925673726559283e+18,-1.617955620005467e+24,851.1664330053968,9.105241425755253e+23
0.0011080253929388448,1.271785625476471e+18,-1.631919328710097e+24,853.7303678335938,9.033844235202223e+23
0.0011180253929388448,1.2515370075421468e+18,-1.6457526262757112e+24,856.2802738639111,8.963453457950324e+23
0.0011280253929388448,1.2318031126724416e+18,-1.659455765479377e+24,858.8163265302366,8.894045901590715e+23
0.0011380253929388448,1.2125663329148186e+18,-1.6730290345015623e+24,861.3386972581728,8.82559923798265e+23
0.0011480253929388449,1.1938098168601418e+18,-1.6864727553944003e+24,863.8475535931086,8.758091956927622e+23
0.001158025392938845,1.1755174305057702e+18,-1.6997872825905696e+24,866.3430593230048,8.691503322969233e+23
0.001168025392938845,1.1576737204875228e+18,-1.712973001454148e+24,868.8253745962414,8.625813335075623e+23
0.001178025392938845,1.140263879516118e+18,-1.7260303268698235e+24,871.2946560346451,8.561002688969181e+23
0.001188025392938845,1.1232737138661542e+18,-1.7389597018747426e+24,873.7510568421559,8.49705274191087e+23
0.001198025392938845,1.1066896127779983e+18,-1.7517615963259314e+24,876.1947269090912,8.433945479732266e+23
0.001208025392938845,1.0904985196432768e+18,-1.7644365056055237e+24,878.6258129123619,8.371663485951959e+23
0.001218025392938845,1.0746879048545057e+18,-1.7769849493631864e+24,881.0444584118741,8.310189912818372e+23
0.001228025392938845,1.0592457402086815e+18,-1.7894074702903227e+24,883.4508039431337,8.249508454122646e+23
0.0012380253929388451,1.044160474762506e+18,-1.801704632927204e+24,885.8449871063569,8.18960331965466e+23
0.0012480253929388451,1.029421012044504e+18,-1.8138770225020216e+24,888.2271426523009,8.13045921117993e+23
0.0012580253929388452,1.0150166885365669e+18,-1.8259252437939352e+24,890.5974025647234,8.072061299808154e+23
0.0012680253929388452,1.0009372533431462e+18,-1.8378499200254198e+24,892.9558961399634,8.014395204666683e+23
0.0012780253929388452,9.871728489728813e+17,-1.8496516917722636e+24,895.3027500633974,7.957446972757804e+23
0.0012880253929388452,9.737139931620724e+17,-1.8613312158969008e+24,897.6380884832861,7.90120305992968e+23
0.0012980253929388453,9.605515616749494e+17,-1.8728891644955198e+24,899.9620330818697,7.845650312859906e+23
0.0013080253929388453,9.476767720199162e+17,-1.8843262238570352e+24,902.2747031439037,7.790775951976327e+23
0.0013180253929388453,9.350811680252676e+17,-1.8956430934300479e+24,904.5762156227455,7.73656755524092e+23
0.0013280253929388453,9.227566052215836e+17,-1.90684048479601e+24,906.8666852042014,7.683013042732456e+23
0.0013380253929388454,9.106952369820128e+17,-1.917919120638185e+24,909.1462243679659,7.630100661949728e+23
0.0013480253929388454,8.9888950137436e+17,-1.9288797337104246e+24,911.4149434471166,7.577818973794236e+23
0.0013580253929388454,8.873321086826394e+17,-1.9397230657935672e+24,913.6729506854214,7.526156839159496e+23
0.0013680253929388455,8.760160295581399e+17,-1.95044986663936e+24,915.9203522927363,7.475103406085421e+23
0.0013780253929388455,8.649344837629082e+17,-1.9610608928967488e+24,918.1572524985479,7.42464809742881e+23
0.0013880253929388455,8.540809294711473e+17,-1.9715569070134327e+24,920.3837536036192,7.374780599000951e+23
0.0013980253929388455,8.434490530959907e+17,-1.9819386761133896e+24,922.5999560300281,7.325490848143174e+23
0.0014080253929388456,8.330327596116644e+17,-1.9922069708423063e+24,924.8059583694916,7.276769022695943e+23
0.0014180253929388456,8.228261633428872e+17,-2.0023625641775498e+24,927.0018574300453,7.228605530330693e+23
0.0014280253929388456,8.128235791951247e+17,-2.012406230202352e+24,929.1877482812738,7.180990998222108e+23
0.0014380253929388456,8.03019514301247e+17,-2.02233874283939e+24,931.3637242980532,7.133916263031995e+23
0.0014480253929388457,7.934086600616969e+17,-2.0321608745426393e+24,933.5298772029076,7.087372361186391e+23
0.0014580253929388457,7.83985884556935e+17,-2.041873394942925e+24,935.6862971068913,7.041350519422825e+23
0.0014680253929388457,7.747462253119822e+17,-2.051477069453278e+24,937.8330725493486,6.995842145607247e+23
0.0014780253929388457,7.65684882394725e+17,-2.060972657827384e+24,939.9702905363033,6.950838819797458e+23
0.0014880253929388458,7.567972118305066e+17,-2.0703609126755807e+24,942.0980365776771,6.906332285552932e+23
0.0014980253929388458,7.480787193168233e+17,-2.079642577939785e+24,944.2163947233655,6.862314441486361e+23
0.0015080253929388458,7.395250542230701e+17,-2.0888183873283457e+24,946.3254475981389,6.818777333052717e+23
0.0015180253929388458,7.31132003861041e+17,-2.097889062718616e+24,948.4252764356021,6.775713144584948e+23
0.0015280253929388459,7.228954880132325e+17,-2.1068553125252178e+24,950.5159611109611,6.73311419156871e+23
0.001538025392938846,7.148115537063322e+17,-2.115717830046056e+24,952.5975801729386,6.690972913173625e+23
0.001548025392938846,7.068763702185393e+17,-2.1244772917866397e+24,954.6702108746289,6.649281865039239e+23
0.001558025392938846,6.990862243097417e+17,-2.1331343557729775e+24,956.7339292034759,6.608033712330374e+23
0.001568025392938846,6.914375156643803e+17,-2.1416896598602675e+24,958.7888099103989,6.567221223071255e+23
