t(s),Adsorbed H on surface 1 (H m-2),solute flux surface 1 (H m-2 s-1),Total T surface 1 (K),0 value at [0] (H m-3)
1e-10,213.46835712775038,-71839838735.09322,300.07794291587146,8200637998705.238
2e-10,634.7699016159312,-154786718423.6811,300.119706714808,16167384187532.277
3e-10,1258.0151453433477,-248224946099.8796,300.1532256697054,23896298007510.875
4e-10,2077.4342974860574,-351711616896.8693,300.1830693131532,31393801167370.305
5e-10,3087.43887183599,-464836271970.81616,300.2109280488304,38667806690323.59
6e-10,4282.645517011578,-587212449644.3792,300.23764018043914,45726765360380.08
7e-10,5657.885301170192,-718474424148.0061,300.26369378026646,52579276882760.24
7.999999999999999e-10,7208.206140406802,-858275492162.4852,300.2894042469439,59233903267775.41
8.999999999999999e-10,8928.871619180849,-1006286855720.6082,300.3149912732703,65699070747381.69
9.999999999999999e-10,10815.357791585115,-1162196776802.5598,300.340616984408,71983015854174.56
1.1e-09,12863.348821766851,-1325709873675.9868,300.36640673039113,78093755629625.97
1.2e-09,15068.73196158868,-1496546500976.0076,300.39246126857233,84039071915970.17
1.3e-09,17427.59217038418,-1674442185457.7808,300.4188643157662,89826504278653.44
1.4000000000000001e-09,19936.206571039907,-1859147102943.0977,300.4456874481041,95463348410089.61
1.5000000000000002e-09,22591.0388699458,-2050425588571.7432,300.47299340197486,100956658103729.0
1.6000000000000003e-09,25388.733826434895,-2248055675833.271,300.50083836945794,106313249591406.75
1.7000000000000003e-09,28326.111830064965,-2451828661645.841,300.5292736385277,111539707456205.23
1.8000000000000004e-09,31400.163625852714,-2661548695735.3413,300.5583467931248,116642391592766.58
1.9000000000000005e-09,34608.04521508403,-2877032393128.607,300.5881026097272,121627444853322.97
2.0000000000000005e-09,37947.07295061662,-3098108468902.108,300.61858373979464,126500801127360.62
2.1000000000000006e-09,41414.71883943199,-3324617394525.9746,300.6498312380767,131268193676949.14
2.2000000000000007e-09,45008.606060790604,-3556411075267.833,300.6818849779665,135935163600967.55
2.3000000000000007e-09,48726.50470517696,-3793352548204.2583,300.7147839827582,140507068337521.83
2.400000000000001e-09,52566.32773693914,-4035315700446.803,300.74856669339164,144989090139680.3
2.500000000000001e-09,56526.12718188921,-4282185007235.8887,300.78327118761166,149386244478435.88
2.600000000000001e-09,60604.090539968995,-4533855289594.736,300.8189353615282,153703388340650.44
2.700000000000001e-09,64798.53742228006,-4790231491271.131,300.85559708177027,157945228400061.97
2.800000000000001e-09,69107.91641124143,-5051228474729.105,300.89329431442235,162116329047221.72
2.900000000000001e-09,73530.80214231124,-5316770835986.889,300.93206523546763,166221120270157.88
3.0000000000000012e-09,78065.89260554257,-5586792738132.646,300.9719483263856,170263905382122.12
3.1000000000000013e-09,82712.00666520554,-5861237763385.99,301.0129824577448,174248868596311.28
3.2000000000000014e-09,87468.08179577054,-6140058783611.1455,301.05520696302364,178180082450221.7
3.3000000000000014e-09,92333.17203269392,-6423217849227.628,301.0986617044295,182061515084483.12
3.4000000000000015e-09,97306.44613666099,-6710686096506.101,301.14338713213004,185897037382764.47
3.5000000000000016e-09,102387.18597021268,-7002443673280.984,301.18942433803346,189690429980752.34
3.6000000000000016e-09,107574.78508600255,-7298479683157.587,301.2368151050384,193445390153362.5
3.7000000000000017e-09,112868.74752629458,-7598792148340.371,301.28560195250407,197165538590307.44
3.800000000000002e-09,118268.68683371501,-7903387991259.803,301.3358281785555,200854426070963.1
3.900000000000002e-09,123774.32527371026,-8212283035229.669,301.3875378997301,204515540050194.78
4.000000000000002e-09,129385.49326963662,-8525502024423.239,301.440776088385,208152311167440.28
4.100000000000002e-09,135102.12905191394,-8843078663517.465,301.4955886082156,211768119691941.66
4.200000000000002e-09,140924.27852321605,-9165055677417.385,301.5520222481748,215366301917574.16
4.300000000000002e-09,146852.09534224452,-9491484891541.334,301.61012475503975,218950156521271.9
4.400000000000002e-09,152885.8412292426,-9822427333218.51,301.6699448648311,222522950899597.84
4.500000000000002e-09,159025.8864970514,-10157953354827.268,301.731532333259,226087927498569.28
4.600000000000002e-09,165272.71081219643,-10498142779383.709,301.794937965344,229648310152440.94
4.700000000000002e-09,171626.90419121945,-10843085069376.828,301.86021364433776,233207310447771.03
4.8000000000000024e-09,178089.16823824227,-11192879519739.29,301.9274123600504,236768134129765.75
4.9000000000000025e-09,184660.31763057024,-11547635475942.643,301.99658823667625,240333987568622.1
5.0000000000000026e-09,191341.28186001568,-11907472578311.914,302.06779656019495,243908084304375.0
5.100000000000003e-09,198133.10723855268,-12272521033769.457,302.14109380541555,247493651689611.75
5.200000000000003e-09,205036.9591779072,-12642921916341.488,302.2165376627203,251093937650356.8
5.300000000000003e-09,212054.12475374824,-13018827497892.87,302.29418706455624,254712217586454.75
5.400000000000003e-09,219186.0155662817,-13400401610700.549,302.3741022117178,258351801433909.3
5.500000000000003e-09,226434.1709102664,-13787820043629.814,302.4563445994547,262016040912868.88
5.600000000000003e-09,233800.2612687788,-14181270973846.49,302.5409770434365,265708336986305.88
5.700000000000003e-09,241286.09214645915,-14580955436179.8,302.62806370559844,269432147555924.12
5.800000000000003e-09,248893.60825948385,-14987087832448.367,302.7176701198919,273190995423459.53
5.900000000000003e-09,256624.89810114066,-15399896483276.08,302.80986321795626,276988476547326.38
6.000000000000003e-09,264482.1989036434,-15819624225158.525,302.90471135472745,280828268626524.25
6.100000000000003e-09,272467.90201872605,-16246529055794.607,303.0022843339966,284714140045867.4
6.200000000000003e-09,280584.55874161405,-16680884830975.12,303.10265343392723,288649959218955.75
6.3000000000000035e-09,288834.8866052028,-17122982016622.785,303.2058914325397,292639704367886.9
6.4000000000000035e-09,297221.7761736899,-17573128499908.191,303.31207263316855,296687473781536.0
6.500000000000004e-09,305748.2983675366,-18031650463727.86,303.42127288989616,300797496597330.44
6.600000000000004e-09,314417.71235448617,-18498893329225.387,303.53356963296574,304974144154839.5
6.700000000000004e-09,323233.4740444741,-18975222771470.812,303.64904189417456,309221941973222.1
6.800000000000004e-09,332199.24522964616,-19461025813887.07,303.767770332247,313545582408650.75
6.900000000000004e-09,341318.90341438766,-19956712007534.887,303.8898372581856,317949938052299.0
7.000000000000004e-09,350596.5523842888,-20462714701939.25,304.0153266605982,322440075934380.5
7.100000000000004e-09,360036.53356736474,-20979492414770.85,304.14432423099663,327021272605098.1
7.200000000000004e-09,369643.43824565015,-21507530308388.434,304.2769173890632,331699030169255.2
7.300000000000004e-09,379422.1206805409,-22047341782010.934,304.4131953078789,336479093357745.9
7.400000000000004e-09,389377.7122210068,-22599470189130.168,304.5532489391071,341367467726239.0
7.500000000000004e-09,399515.63647010166,-23164490690702.152,304.69717103812644,346370439079159.5
7.600000000000004e-09,409841.6255921108,-23743012255679.766,304.84505618910333,351494594225632.6
7.700000000000003e-09,420361.7378502614,-24335679821583.457,304.9970008299978,356746843183459.25
7.800000000000002e-09,431082.3764732578,-24943176629056.805,305.15310327749165,362134442957531.1
7.900000000000001e-09,442010.30995806714,-25566226745743.074,305.31346375183057,367665023030468.0
8e-09,453152.6939264632,-26205597796352.73,305.47818440156834,373346612715772.6
8.1e-09,464517.09466393985,-26862103917497.234,305.6473693282035,379187670537578.0
8.199999999999999e-09,476111.51448184176,-27536608957754.625,305.8211246106967,385197115816239.9
8.299999999999998e-09,487944.4190570546,-28230029945531.36,305.9995583298557,391384362655755.9
8.399999999999997e-09,500024.76691849454,-28943340849621.1,306.1827805925768,397759356547436.0
8.499999999999997e-09,512362.04126609094,-29677576659957.652,306.3709035559291,404332613824605.2
8.599999999999996e-09,524966.284326149,-30433837818952.56,306.5640414510674,411115264225585.3
8.699999999999995e-09,537848.1344671074,-31213295037031.97,306.76231060696114,418119096847023.75
8.799999999999994e-09,551018.8663219914,-32017194529584.195,306.96582947392386,425356609797066.3
8.899999999999994e-09,564490.434188565,-32846863716545.09,307.17471864692806,432841063888206.5
8.999999999999993e-09,578275.519005572,-33703717430337.902,307.3891008886916,440586540743216.3
9.099999999999992e-09,592387.5792338649,-34589264682901.24,307.609101152518,448608005724727.44
9.199999999999991e-09,606840.9060049934,-35505116048161.914,307.8348466048763,456921376140215.9
9.29999999999999e-09,621650.6829373689,-36452991722603.57,308.066466647702,465543595219791.56
9.39999999999999e-09,636833.0510619066,-37434730333646.92,308.304092940404,474492712414843.06
9.499999999999989e-09,652405.1793455611,-38452298573482.59,308.54785942155894,483787970621793.25
9.599999999999988e-09,668385.3413530237,-39507801744908.516,308.79790233027563,493449900997666.2
9.699999999999988e-09,684792.9986446797,-40603495315737.516,309.0543602272115,503500426103554.4
9.799999999999987e-09,701648.8915734784,-41741797589621.22,309.31737401522247,513962972189253.3
9.899999999999986e-09,718975.138215497,-42925303613838.766,309.5870869596281,524862591518217.3
9.999999999999985e-09,736795.34224963,-44156800458928.88,309.8636447080713,536226095727629.3
1.0099999999999985e-08,755134.7106920935,-45439284021219.31,310.14719530995524,548082201324957.1
1.0199999999999984e-08,774020.1824925332,-46775977517582.88,310.43788923543605,560461688541205.4
1.0299999999999983e-08,793480.5691118576,-48170351862420.54,310.7358793939517,573397574893666.5
1.0399999999999982e-08,813546.7083290779,-49626148140273.34,311.04132115226685,586925304959034.5
1.0499999999999982e-08,834251.6326672381,-51147402413982.92,311.35437235201294,601082958023152.6
1.059999999999998e-08,855630.7539890116,-52738473138398.79,311.67519332670213,615911475458609.1
1.069999999999998e-08,877722.0659930905,-54404071483783.86,312.0039469181937,631454909888299.4
1.079999999999998e-08,900566.3665457729,-56149294911886.086,312.34079849259257,647760698424713.1
1.0899999999999978e-08,924207.5020112327,-57979664391801.08,312.68591595555625,664879962534209.8
1.0999999999999978e-08,948692.6360023303,-59901165693041.055,313.0394697669899,682867837366454.0
1.1099999999999977e-08,974072.545265509,-61920295250550.94,313.4016329551059,701783833715541.2
1.1199999999999976e-08,1000401.9457428948,-64044111161827.016,313.77258112982605,721692236145686.9
1.1299999999999975e-08,1027739.85222745,-66280289951015.26,314.1524924955035,742662541225890.4
1.1399999999999975e-08,1056149.9754489367,-68637189820301.77,314.54154786294157,764769940280582.1
1.1499999999999974e-08,1085701.160906458,-71123921206697.17,314.9399306606856,788095851583624.1
1.1599999999999973e-08,1116467.874305412,-73750425574365.02,315.3478269455656,812728507508758.5
1.1699999999999972e-08,1148530.7390719566,-76527563501148.61,315.7654254124654,838763602809359.1
1.1799999999999972e-08,1181977.1321170728,-79467213265499.47,316.1929174032943,866305010943980.8
1.1899999999999971e-08,1216901.8448171385,-82582381309591.94,316.6304969151386,895465576202968.5
1.199999999999997e-08,1253407.817082575,-85887326149511.06,317.0783606075678,926367990338087.6
1.209999999999997e-08,1291606.9534167112,-89397697528114.89,317.5367078090716,959145763466375.1
1.2199999999999969e-08,1331621.0310421553,-93130692865252.03,318.00574052260447,993944300227866.4
1.2299999999999968e-08,1373582.7115131796,-97105233359030.67,318.4856634302121,1030922093543576.2
1.2399999999999967e-08,1417636.6687648122,-101342162437316.06,318.97668389671617,1070252049866856.2
1.2499999999999966e-08,1463940.8483013047,-105864469658211.64,319.47901197243283,1112122961572906.8
1.2599999999999966e-08,1512667.874231794,-110697543620914.7,319.99286039490016,1156741144116250.0
1.2699999999999965e-08,1564006.6231580353,-115869457984565.02,320.5184445895905,1204332257836959.8
1.2799999999999964e-08,1618163.986552998,-121411295314862.34,321.0559826695823,1255143336850708.0
1.2899999999999963e-08,1675366.8462920873,-127357514200883.16,321.60569543416824,1309445050357995.2
1.2999999999999963e-08,1735864.2914715204,-133746365924776.11,322.1678063663733,1367534225003282.0
1.3099999999999962e-08,1799930.1086415462,-140620367945052.95,322.74254162935983,1429736660661433.2
1.3199999999999961e-08,1867865.5821780544,-148026842593812.84,323.33013006169426,1496410276291406.0
1.329999999999996e-08,1940002.6468105242,-156018530717532.84,323.930803171451,1567948627349601.8
1.339999999999996e-08,2016707.4404290898,-164654291543272.94,324.5447951291299,1644784841782983.0
1.3499999999999959e-08,2098384.312339291,-173999901866528.66,325.172342759362,1727396027922695.2
1.3599999999999958e-08,2185480.3502724343,-184128969780097.16,325.8136855313802,1816308214785252.2
1.3699999999999957e-08,2278490.4988707732,-195123980650279.66,326.46906554823045,1912101893489752.5
1.3799999999999956e-08,2377963.3532587225,-207077495963022.62,327.13872753469985,2015418237865298.2
1.3899999999999956e-08,2484507.7239285614,-220093529085780.06,327.8229188239378,2126966093024466.8
1.3999999999999955e-08,2598800.083798146,-234289126013347.25,328.52188934274636,2247529832914189.5
1.4099999999999954e-08,2721593.0252752425,-249796183897428.8,329.2358915955173,2377978201852899.0
1.4199999999999953e-08,2853724.874882887,-266763545730989.0,329.96518064679236,2519274271085208.5
1.4299999999999953e-08,2996130.635926319,-285359416125265.44,330.7100141024237,2672486659736216.5
1.4399999999999952e-08,3149854.456359681,-305774150865502.1,331.47065208931195,2838802190577004.0
1.4499999999999951e-08,3316063.8500812566,-328223482082686.4,332.24735723370014,3019540175125354.0
1.459999999999995e-08,3496065.936104694,-352952251697814.94,333.04039463800126,3216168550268277.0
1.469999999999995e-08,3691326.002310418,-380238738599187.56,333.85003185613726,3430322120345182.0
1.4799999999999949e-08,3903488.749825484,-410399680180986.06,334.6765388673694,3663823195096478.5
1.4899999999999948e-08,4134402.6317496975,-443796106856808.5,335.5201880485974,3918704955783082.0
1.499999999999995e-08,4386147.767402885,-480840129509020.2,336.38125414510876,4197237929952339.5
1.509999999999995e-08,4661067.992240229,-522002845196135.5,337.26001423975606,4501960010730294.0
1.519999999999995e-08,4961807.696112154,-567823556599427.9,338.1567477205448,4835710520276545.0
1.5299999999999952e-08,5291354.211048878,-618920536587266.2,339.07173624661,5201668890439213.0
1.5399999999999953e-08,5653086.637088601,-676003612042561.4,340.0052637125654,5603398618192037.0
1.5499999999999954e-08,6050832.144231539,-739888892095612.2,340.95761621120494,6044897250857655.0
1.5599999999999954e-08,6488930.9644072605,-811516026769574.1,341.9290819945394,6530653268431192.0
1.5699999999999955e-08,6972311.4941550605,-891968454751586.4,342.91995143315177,7065710859845311.0
1.5799999999999956e-08,7506577.172191449,-982497185927378.5,343.93051697385334,7655743739461555.0
1.5899999999999957e-08,8098107.082890006,-1084548768329165.8,344.96107309562547,8307139322563180.0
1.5999999999999958e-08,8754172.574904624,-1199798213707124.2,346.0119162638307,9027094777789776.0
1.609999999999996e-08,9483072.583210701,-1330187805223575.2,347.0833448826792,9823726704502710.0
1.619999999999996e-08,10294290.813998314,-1477972889835809.0,348.17565924593583,1.0706196448882416e+16
1.629999999999996e-08,11198678.508547138,-1645775972882891.2,349.28916148585364,1.1684853379794868e+16
1.639999999999996e-08,12208667.160420714,-1836650690606519.8,350.4241555203221,1.2771398800692022e+16
1.6499999999999962e-08,13338516.33906522,-2054157546749516.8,351.58094699821766,1.3979073584646954e+16
1.6599999999999963e-08,14604602.694856996,-2302453672802150.5,352.75984324294365,1.5322873094906212e+16
1.6699999999999964e-08,16025757.312838724,-2586399321003643.5,353.96115319415105,1.6819793503324822e+16
1.6799999999999965e-08,17623659.877043724,-2911684340721346.5,355.18518734762813,1.8489114255625424e+16
1.6899999999999966e-08,19423299.642876253,-3284978541555751.0,356.4322576933516,2.0352722169397496e+16
1.6999999999999967e-08,21453515.03737156,-3714110633772439.5,357.70267765168893,2.24354835041318e+16
1.7099999999999968e-08,23747625.87107068,-4208281386721700.0,358.996762007746,2.476567133094439e+16
1.719999999999997e-08,26344174.716110308,-4778317793078382.0,360.3148268438523,2.737545667452685e+16
1.729999999999997e-08,29287797.06106447,-5436976412646799.0,361.6571894701782,3.030147322624798e+16
1.739999999999997e-08,32630243.48741313,-6199305744651502.0,363.024168353479,3.3585466964204588e+16
1.749999999999997e-08,36431581.43678956,-7083079503204786.0,364.4160830439622,3.72750437969683e+16
1.7599999999999972e-08,40761609.28569232,-8109315121467882.0,365.83325410027373,4.142453041174269e+16
1.7699999999999973e-08,45701521.574527435,-9302894776317014.0,367.27600301260236,4.609596589977046e+16
1.7799999999999974e-08,51345871.541253544,-1.0693309816879066e+16,368.7446521238993,5.136024450440396e+16
1.7899999999999975e-08,57804885.81445473,-1.2315553830442714e+16,370.239524549214,5.729843305085841e+16
1.7999999999999976e-08,65207196.49894945,-1.421119484989075e+16,371.760944093146,6.4003290341454824e+16
1.8099999999999977e-08,73703068.26510832,-1.6429663594557848e+16,373.3092351654139,7.158102011733902e+16
1.8199999999999978e-08,83468212.82090414,-1.9029802380045724e+16,374.88472269454604,8.015329419121011e+16
1.829999999999998e-08,94708300.76988351,-2.208172872190063e+16,376.4877320396935,8.98595881542131e+16
1.839999999999998e-08,107664301.89678732,-2.566907904509001e+16,378.11858890057334,1.0085987877954102e+17
1.849999999999998e-08,122618810.04298052,-2.9891711723029064e+16,379.77761922554464,1.1333776003070952e+17
1.859999999999998e-08,139903538.73459095,-3.486896542483718e+16,381.4651491178264,1.2750404360171989e+17
1.8699999999999982e-08,159908209.5621681,-4.074358907635965e+16,383.18150473986356,1.4360092036313971e+17
1.8799999999999983e-08,183091098.12360767,-4.768648440192216e+16,384.92701221585185,1.619067711860506e+17
1.8899999999999984e-08,209991553.49725774,-5.590243193442218e+16,386.7019975324294,1.8274172962260467e+17
1.8999999999999985e-08,241244868.34151816,-6.56370076818079e+16,388.5067864375464,2.0647411513469197e+17
1.9099999999999986e-08,277599949.77130127,-7.718494167578398e+16,390.3417043375277,2.3352787432306874e+17
1.9199999999999987e-08,319940328.47087014,-9.090022304748074e+16,392.20707619233747,2.6439118931193923e+17
1.9299999999999988e-08,369309147.8504887,-1.0720832106424533e+17,394.1032264090642,2.996264375412401e+17
1.939999999999999e-08,426938899.7649642,-1.2662097012794933e+17,396.0304787336395,3.398817162309415e+17
1.949999999999999e-08,494286822.3532531,-1.4975406198719728e+17,397.9891561408073,3.859041783058558e+17
1.959999999999999e-08,573077053.6641247,-1.7734930386776925e+17,399.9795807223629,4.385554652908754e+17
1.969999999999999e-08,665350847.5499328,-2.103004411201447e+17,402.00207357367947,4.988295673903156e+17
1.9799999999999992e-08,773526412.570242,-2.4968501243821325e+17,404.0569546785428,5.678734925500843e+17
1.9899999999999993e-08,900470238.3700747,-2.968028108890498e+17,406.14454279231575,6.470111857957494e+17
1.9999999999999994e-08,1049582136.7356781,-3.532224723411431e+17,408.265155323455,7.377712087178787e+17
2.0099999999999995e-08,1224896657.6525285,-4.2083791333065325e+17,410.41910821340355,8.419187679787168e+17
2.0199999999999996e-08,1431204057.71845,-5.0193670371454016e+17,412.6067158148837,9.61492772669453e+17
2.0299999999999996e-08,1674194615.2735577,-5.992828985412604e+17,414.82829076861816,1.098848704994785e+18
