t(s),Adsorbed H on surface 1 (H m-2),solute flux surface 1 (H m-2 s-1),Total T surface 1 (K),0 value at [0] (H m-3)
1e-10,216.27501125073886,-72726667671.24974,300.16294014482634,8290282183378.471
2e-10,644.8658323839882,-157364793189.3055,300.25026538887147,16391895675167.578
3e-10,1281.1022908617067,-253268952733.5268,300.3203514509022,24289659614539.195
4e-10,2120.241923180052,-360024394697.3913,300.38275274756705,31984523202281.168
5e-10,3157.613379192992,-477262147369.5361,300.4410038062258,39481109255414.45
6e-10,4388.680255184988,-604642417381.077,300.4968574681046,46785698245081.35
7e-10,5809.073948378645,-741848775708.7131,300.55133426285624,53905393091479.94
7.999999999999999e-10,7414.611632951346,-888585535128.0889,300.60509367122216,60847707557368.695
8.999999999999999e-10,9201.306174510131,-1044576335634.7194,300.65859506000004,67620340671152.19
9.999999999999999e-10,11165.371330440155,-1209563262438.3242,300.7121774265584,74231044425405.88
1.1e-09,13303.224055839515,-1383306227418.164,300.7661028745914,80687542848606.78
1.2e-09,15611.484981036236,-1565582494997.1785,300.8205820867889,86997481420341.83
1.3e-09,18086.97772205424,-1756186295811.5085,300.87579011585547,93168395399681.28
1.4000000000000001e-09,20726.727453491207,-1954928499863.9622,300.9318766297769,99207690453172.23
1.5000000000000002e-09,23527.9590332549,-2161636334564.3901,300.98897281387184,105122631558811.05
1.6000000000000003e-09,26488.094880420093,-2376153140053.687,301.04719617040223,110920337635578.05
1.7000000000000003e-09,29604.752749973,-2598338157924.489,301.1066539481501,116607780226317.12
1.8000000000000004e-09,32875.743509644126,-2828066351497.677,301.16744565171143,122191785106413.38
1.9000000000000005e-09,36299.06899755795,-3065228256977.066,301.22966491619485,127679036040232.73
2.0000000000000005e-09,39872.920020921934,-3309729865490.192,301.2934009342031,133076080138310.16
2.1000000000000006e-09,43595.674542864355,-3561492536446.0674,301.3587395605258,138389334425020.1
2.2000000000000007e-09,47465.89609515904,-3820452942918.418,301.4257641806601,143625093335327.62
2.3000000000000007e-09,51482.33244785891,-4086563049962.042,301.4945564034918,148789536936443.84
2.400000000000001e-09,55643.91456207023,-4359790126928.7227,301.56519662118137,153888739726078.7
2.500000000000001e-09,59949.755848734785,-4640116794989.278,301.63776446746436,158928679900147.75
2.600000000000001e-09,64399.15175400121,-4927541111204.66,301.7123391973376,163915249013669.22
2.700000000000001e-09,68991.57969031393,-5222076690628.516,301.7890000052631,168854261982160.8
2.800000000000001e-09,73726.69933155437,-5523752868072.922,301.8678262948293,173751467389174.88
2.900000000000001e-09,78604.3532903095,-5832614901330.908,301.9488979097484,178612558080126.7
3.0000000000000012e-09,83624.56819552823,-6148724217827.525,302.0322953338171,183443182034310.6
3.1000000000000013e-09,88787.55618939224,-6472158706866.98,302.1180998657788,188248953516697.0
3.2000000000000014e-09,94093.71686313157,-6803013059859.703,302.20639377375886,193035464519314.66
3.3000000000000014e-09,99543.63965272435,-7141399161151.892,302.2972604329736,197808296509149.12
3.4000000000000015e-09,105138.10671691781,-7487446532342.625,302.39078444966856,202573032505848.1
3.5000000000000016e-09,110878.09632178312,-7841302833263.811,302.4870517736645,207335269518352.78
3.6000000000000016e-09,116764.78675806682,-8203134423117.351,302.58614980143625,212100631375067.22
3.7000000000000017e-09,122799.5608199322,-8573126985615.41,302.68816747129347,216874781987488.6
3.800000000000002e-09,128984.01087630093,-8951486222357.096,302.79319535194924,221663439092478.2
3.900000000000002e-09,135319.94456892717,-9338438619101.48,302.90132572553637,226472388523668.06
4.000000000000002e-09,141809.39117457738,-9734232290066.764,303.0126526659479,231307499067968.84
4.100000000000002e-09,148454.60867227757,-10139137905904.684,303.1272721132335,236174737968860.3
4.200000000000002e-09,155258.09156055015,-10553449711570.082,303.24528194466103,241080187144190.97
4.300000000000002e-09,162222.5794739312,-10977486640938.406,303.3667820429552,246030060192669.06
4.400000000000002e-09,169351.06665287245,-11411593535720.852,303.4918743621459,251030720270181.22
4.500000000000002e-09,176646.8123264356,-11856142476999.297,303.62066299138905,256088698924599.03
4.600000000000002e-09,184113.35207302938,-12311534238557.125,303.7532542170705,261210715985934.28
4.700000000000002e-09,191754.51023087942,-12778199872128.691,303.88975658345436,266403700617655.53
4.8000000000000024e-09,199574.4134370209,-13256602435739.666,304.03028095210055,271674813644795.62
4.9000000000000025e-09,207577.50538143743,-13747238877475.586,304.174940560242,277031471285267.7
5.0000000000000026e-09,215768.56287161715,-14250642088310.152,304.3238510782853,282481370422681.7
5.100000000000003e-09,224152.71331235228,-14767383139064.293,304.47713066657394,288032515572055.1
5.200000000000003e-09,232735.45371617313,-15298073718169.898,304.63490003153504,293693247704279.7
5.300000000000003e-09,241522.67137149963,-15843368788697.275,304.797282481311,299472275111209.0
5.400000000000003e-09,250520.66630854434,-16403969485097.969,304.9644039809646,305378706510945.94
5.500000000000003e-09,259736.17571735903,-16980626272338.496,305.1363932073327,311422086612548.4
5.600000000000003e-09,269176.40048834897,-17574142392586.664,305.3133816035918,317612434381144.7
5.700000000000003e-09,278849.0340632754,-18185377627393.96,305.495503433591,323960284268638.06
5.800000000000003e-09,288762.29380443995,-18815252406433.184,305.68289583599756,330476730702045.25
5.900000000000003e-09,298924.95511163765,-19464752297343.434,305.8756988782938,337173476151397.44
6.000000000000003e-09,309346.3885408486,-20134932915155.56,306.07405561065826,344062883132387.75
6.100000000000003e-09,320036.600205828,-20826925294176.297,306.2781121197566,351158030535992.44
6.200000000000003e-09,331006.275774093,-21541941770163.465,306.4880175824643,358472774718580.75
6.3000000000000035e-09,342266.8284027003,-22281282426203.996,306.70392431953786,366021815832094.25
6.4000000000000035e-09,353830.4509971069,-23046342161993.99,306.9259878492473,373820769925296.75
6.500000000000004e-09,365710.1732188262,-23838618453315.055,307.15436694097906,381886247404554.56
6.600000000000004e-09,377919.9237151195,-24659719876516.04,307.3892236688151,390235938506850.25
6.700000000000004e-09,390474.59809726395,-25511375481872.81,307.6307234650915,398888706509626.56
6.800000000000004e-09,403390.13325377705,-26395445109958.594,307.87903517393636,407864689482573.2
6.900000000000004e-09,416683.5886522216,-27313930756786.895,308.13433110478485,417185411476711.6
7.000000000000004e-09,430373.2353588588,-28268989106682.94,308.39678708586644,426873904147363.9
7.100000000000004e-09,444478.6535905964,-29262945366828.324,308.6665825176587,436954839921236.8
7.200000000000004e-09,459020.8397096948,-30298308554467.29,308.9439004262978,447454677945538.9
7.300000000000004e-09,474022.3236800348,-31377788407170.18,309.22892751693604,458401824200629.9
7.400000000000004e-09,489507.29812613426,-32504314108668.637,309.52185422703394,469826807319298.4
7.500000000000004e-09,505501.7602744811,-33681055048022.887,309.8228747795736,481762471837771.4
7.600000000000004e-09,522033.66821339447,-34911443858721.48,310.1321872361776,494244190808750.25
7.700000000000003e-09,539133.1130851293,-36199202017309.59,310.44999355011703,507310099938270.8
7.800000000000002e-09,556832.5090252942,-37548368318927.96,310.77649961919104,521001355669615.1
7.900000000000001e-09,575166.8028933206,-38963330590476.97,311.11191533845846,535362419932971.44
8e-09,594173.7060976744,-40448861051864.68,311.45645465280046,550441374613769.4
8.1e-09,613893.9511153677,-42010155792987.37,311.8103356092941,566290269171023.8
8.199999999999999e-09,634371.5756424167,-43652878899904.2,312.1737804093724,582965505265822.9
8.299999999999998e-09,655654.2376964013,-45383211839516.97,312.5470154607486,600528262746420.9
8.399999999999997e-09,677793.5654313494,-47207908799578.83,312.93027142907897,619044971888453.8
8.499999999999997e-09,700845.545927129,-49134358781963.195,313.3237832893386,638587837416025.4
8.599999999999996e-09,724870.9577900217,-51170655364083.15,313.72779037688343,659235420542691.0
8.699999999999995e-09,749935.8530594291,-53325675178822.29,314.14253643817085,681073286083197.8
8.799999999999994e-09,776112.094670801,-55609166320457.44,314.5682696811106,704194722611719.4
8.899999999999994e-09,803477.9565921365,-58031848066514.54,315.00524282501556,728701544696868.4
8.999999999999993e-09,832118.7947486173,-60605523517676.82,315.453713150123,754704987447318.5
9.099999999999992e-09,862127.7979978789,-63343207004912.36,315.9139425466555,782326704976662.2
9.199999999999991e-09,893606.8297414881,-66259268401034.77,316.38619756338744,811699885967966.5
9.29999999999999e-09,926667.3722848761,-69369596810207.07,316.8707494556873,842970501317260.0
9.39999999999999e-09,961431.5878217188,-72691786502042.88,317.36787423299984,876298700895498.2
9.499999999999989e-09,998033.5119588296,-76245348417212.05,317.877852705735,911860378830587.0
9.599999999999988e-09,1036620.3980601488,-80051951110979.38,318.4009705315279,949848929421453.6
9.699999999999988e-09,1077354.233427676,-84135695634439.88,318.9375182608351,990477218909140.5
9.799999999999987e-09,1120413.4515171186,-88523429597679.38,319.48779138182977,1033979801908512.1
9.899999999999986e-09,1165994.8680820253,-93245106535406.36,320.05209036455904,1080615415421761.0
9.999999999999985e-09,1214315.8734412375,-98334197728553.77,320.63072070432565,1130669788097017.0
1.0099999999999985e-08,1265616.9180758412,-103828164854622.34,321.2239929642557,1184458807861598.8
1.0199999999999984e-08,1320164.3346079064,-109769003280763.06,321.8322228170131,1242332097366114.2
1.0299999999999983e-08,1378253.5460416453,-116203867519559.92,322.4557310856215,1304677053958478.0
1.0399999999999982e-08,1440212.71813308,-123185792389639.67,323.0948437833531,1371923419324648.5
1.0499999999999982e-08,1506406.9231045747,-130774525823606.08,323.7498921526435,1444548453671033.2
1.059999999999998e-08,1577242.892882464,-139037492119100.88,324.4212127029915,1523082800599264.5
1.069999999999998e-08,1653174.452903272,-148050907825325.5,325.10914724780184,1608117141891809.5
1.079999999999998e-08,1734708.742656616,-157901076506227.5,325.81404294012833,1700309756584773.0
1.0899999999999978e-08,1822413.346928245,-168685893454908.3,326.53625230727454,1800395116302125.5
1.0999999999999978e-08,1916924.482673154,-180516597211798.06,327.2761332842087,1909193669274006.8
1.1099999999999977e-08,2018956.411182184,-193519811656160.34,328.03404924574915,2027622989243089.2
1.1199999999999976e-08,2129312.274418878,-207839930732796.6,328.8103690374754,2156710493144290.8
1.1299999999999975e-08,2248896.5889508757,-223641907830872.84,329.60546700532126,2297607963691563.5
1.1399999999999975e-08,2378729.6718062134,-241114523799869.3,330.4197230238033,2451608150606262.0
1.1499999999999974e-08,2519964.321079608,-260474221996001.03,331.2535225228413,2620163768100021.5
1.1599999999999973e-08,2673905.1316755973,-281969616122965.7,332.1072565131231,2804909257471581.5
1.1699999999999972e-08,2842030.894983241,-305886797601753.94,332.98132160996846,3007685743578125.5
1.1799999999999972e-08,3026020.612673718,-332555594556928.3,333.87612005564574,3230569684015764.5
1.1899999999999971e-08,3227783.7517814157,-362356965199179.2,334.7920597400945,3475905791884281.0
1.199999999999997e-08,3449495.483889673,-395731745591837.2,335.72955422000655,3746344909137358.0
1.209999999999997e-08,3693637.789362683,-433191016957100.9,336.6890227362199,4044887620237727.5
1.2199999999999969e-08,3963047.4727030606,-475328412583333.6,337.67089022937586,4374934528111731.5
1.2299999999999968e-08,4260972.332788866,-522834751227020.0,338.67558735379424,4740344269740744.0
1.2399999999999967e-08,4591136.968642539,-576515465360921.4,339.70355048951717,5145500531295075.0
1.2499999999999966e-08,4957819.985620932,-637311392035599.6,340.755221752475,5595389537437683.0
1.2599999999999966e-08,5365944.708342697,-706323615611970.0,341.8310490027251,6095689742142603.0
1.2699999999999965e-08,5821185.917261777,-784843200281499.9,342.93148585071714,6652875746018281.0
1.2799999999999964e-08,6330095.620121992,-874386832425395.5,344.0569916615357,7274338815925088.0
1.2899999999999963e-08,6900251.465327529,-976739616293921.1,345.2080315570728,7968526796397353.0
1.2999999999999963e-08,7540432.123158267,-1094006540913983.2,346.3850764160823,8745106690626594.0
1.3099999999999962e-08,8260824.829120693,-1228674473609028.8,347.58860287206784,9615153765323340.0
1.3199999999999961e-08,9073271.333754024,-1383686951022681.0,348.81909330895746,1.0591371715043338e+16
1.329999999999996e-08,9991559.774250224,-1562534550721673.5,350.0770358545161,1.1688349227034836e+16
1.339999999999996e-08,11031771.523409152,-1769364258537083.8,351.36292437144937,1.2922859240531984e+16
1.3499999999999959e-08,12212693.939618386,-2009112027734810.0,352.6772584461497,1.431420832228413e+16
1.3599999999999958e-08,13556312.209840612,-2287663692004839.0,354.0205433750401,1.5884644915830888e+16
1.3699999999999957e-08,15088396.234405313,-2612050590221343.5,355.3932901484659,1.7659836804727488e+16
1.3799999999999956e-08,16839201.85616021,-2990687743305426.0,356.79601543208923,1.9669430006190776e+16
1.3899999999999956e-08,18844309.820323735,-3433664262788001.0,358.2292415457402,2.1947703536976404e+16
1.3999999999999955e-08,21145630.828650102,-3953097955002791.0,359.6934964396766,2.4534337133845616e+16
1.4099999999999954e-08,23792611.123166356,-4563568924657698.0,361.1893136682088,2.747531214554177e+16
1.4199999999999953e-08,26843680.447819896,-5282650515184450.0,362.71723236064275,3.0823969535694828e+16
1.4299999999999953e-08,30367993.29488221,-6131560324194394.0,364.27779718949677,3.4642253358452964e+16
1.4399999999999952e-08,34447525.421163045,-7135959518129530.0,365.87155833594767,3.9002173324348264e+16
1.4499999999999951e-08,39179601.1780321,-8326935513816752.0,367.499071452461,4.398752632200194e+16
1.459999999999995e-08,44679943.807109974,-9742211638901680.0,369.16089762256394,4.969592419138389e+16
1.469999999999995e-08,51086361.2108388,-1.1427638058613614e+16,370.85760331771485,5.624118388248102e+16
1.4799999999999949e-08,58563204.67812812,-1.3439031603991728e+16,372.5897603512298,6.3756146648803096e+16
1.4899999999999948e-08,67306768.6962457,-1.5844448836553726e+16,374.35794582922256,7.239600543924216e+16
1.499999999999995e-08,77551837.6274266,-1.8726997591292356e+16,376.1627420985157,8.234223454699986e+16
1.509999999999995e-08,89579631.29776299,-2.2188318428857972e+16,378.0047366914848,9.380723330647008e+16
1.519999999999995e-08,103727458.44454058,-2.6352900250891184e+16,379.884522267793,1.0703981674109154e+17
1.5299999999999952e-08,120400456.9768298,-3.1373435490440424e+16,381.802696552978,1.2233171120391102e+17
1.5399999999999953e-08,140085886.18812096,-3.743747192167207e+16,383.7598622738517,1.400252429877466e+17
1.5499999999999954e-08,163370542.20768902,-4.477568293103855e+16,385.7566270906758,1.6052244352959565e+17
1.5599999999999954e-08,190961998.77232116,-5.367215944127854e+16,387.7936035260748,1.842958372842266e+17
1.5699999999999955e-08,223714536.63146847,-6.447722883853103e+16,389.8714088906498,2.1190122889081843e+17
1.5799999999999956e-08,262660823.72421315,-7.762343457703309e+16,391.99066520525906,2.439928664445961e+17
1.5899999999999957e-08,309050653.5343662,-9.36454713593603e+16,394.1519991199287,2.8134142934269834e+17
1.5999999999999958e-08,364398351.67972493,-1.1320507337806288e+17,396.35604182935947,3.248553744728453e+17
1.609999999999996e-08,430540834.3455073,-1.3712210769464326e+17,398.6034289849974,3.7560627603289274e+17
1.619999999999996e-08,509708763.3438787,-1.664134447872936e+17,400.89480060363474,4.3485891506613555e+17
1.629999999999996e-08,604613812.0256323,-2.023415803992458e+17,403.2308009725109,5.0410701849357626e+17
1.639999999999996e-08,718555759.504925,-2.4647548812399914e+17,405.61207855088094,5.851157183090414e+17
1.6499999999999962e-08,855553999.2031662,-3.007668170874625e+17,408.0392858680239,6.799720047496425e+17
1.6599999999999963e-08,1020509120.4934387,-3.676453467439286e+17,410.5130794176593,7.911446886593585e+17
1.6699999999999964e-08,1219401547.271801,-4.5013861267572243e+17,413.0341195487474,9.215556750087523e+17
1.6799999999999965e-08,1459535853.8680487,-5.520218753041086e+17,415.60307035264344,1.0746646899723812e+18
1.6899999999999966e-08,1749841399.9314895,-6.780061825351826e+17,418.22059954658,1.254570007941234e+18
1.6999999999999967e-08,2101242421.8834627,-8.33974258753879e+17,420.8873783534526,1.4661282039476242e+18
1.7099999999999968e-08,2527113800.205634,-1.027276437595565e+18,423.60408137788596,1.7150965248275628e+18
1.719999999999997e-08,3043842525.8693433,-1.2671019709911153e+18,426.37138647855465,2.0083021450375588e+18
1.729999999999997e-08,3671519583.707426,-1.5649449496255455e+18,429.18997463673634,2.353843369139078e+18
1.739999999999997e-08,4434792762.142697,-1.935188956237372e+18,432.06052982107974,2.7613287845346156e+18
1.749999999999997e-08,5363918041.270782,-2.3958406868564905e+18,434.98373884856,3.242161480776509e+18
1.7599999999999972e-08,6496056016.416203,-2.9694504187648937e+18,437.96029124160856,3.809876765674199e+18
1.7699999999999973e-08,7876870663.993388,-3.6842667529215667e+18,440.9908790813953,4.480543358472659e+18
1.7799999999999974e-08,9562501118.845892,-4.5756849774847263e+18,444.07619685724484,5.273239867273468e+18
1.7899999999999975e-08,11621993579.994602,-5.688063262430625e+18,447.2169413121715,6.210620508921448e+18
1.7999999999999976e-08,14140300695.124428,-7.076999412426941e+18,450.4138112845173,7.319586559646819e+18
1.8099999999999977e-08,17221980648.22271,-8.812183950395486e+18,453.66750754567556,8.632082997348367e+18
1.8199999999999978e-08,20995758732.39798,-1.0980973953531e+19,456.9787326338896,1.0186043284916466e+19
1.829999999999998e-08,25620151701.35515,-1.3692867638681911e+19,460.34819068410843,1.202650933304858e+19
1.839999999999998e-08,31290401203.61714,-1.7085103815774702e+19,463.7765872538911,1.4206958467984456e+19
1.849999999999998e-08,38247018990.6925,-2.1329664980244673e+19,467.2646291453456,1.6790874826289541e+19
1.859999999999998e-08,46786315631.37573,-2.664203042177326e+19,470.8130242230933,1.9853609133331788e+19
1.8699999999999982e-08,57273368917.78414,-3.329210924177164e+19,474.4224812282463,2.348457844081474e+19
1.8799999999999983e-08,70157991350.77016,-4.161788619091834e+19,478.0937095883916,2.7789866268544967e+19
1.8899999999999984e-08,85994382071.26039,-5.204244012508124e+19,481.82741922356973,3.289529390631195e+19
1.8999999999999985e-08,105465302215.5946,-6.50951509200836e+19,485.62432034824525,3.895004559859858e+19
1.9099999999999986e-08,129411799760.06616,-8.14381022728063e+19,489.48512326925675,4.613094420127715e+19
1.9199999999999987e-08,158869737500.93964,-1.0189892265263437e+20,493.4105381797435,5.464748994005879e+19
1.9299999999999988e-08,195114654305.61655,-1.2751159402048225e+20,497.4012749490423,6.47477934239946e+19
1.939999999999999e-08,239716825237.02786,-1.5956710892158422e+20,501.45804290854915,7.672555541985601e+19
1.949999999999999e-08,294608792621.0339,-1.996762844892663e+20,505.581550633543,9.09282704614333e+19
1.959999999999999e-08,362168131925.8369,-2.4984756265179536e+20,509.7725057209648,1.077668595822508e+20
1.969999999999999e-08,445318810495.448,-3.1258325831700814e+20,514.0316145631527,1.277269697986734e+20
1.9799999999999992e-08,547655213949.49286,-3.909984839575153e+20,518.3595821175307,1.5138221496097525e+20
1.9899999999999993e-08,673593778373.5507,-4.889679063881854e+20,522.7571116722455,1.7940967481420235e+20
1.9999999999999994e-08,828558204562.4795,-6.113066109523334e+20,527.2249046077536,2.1260801720627347e+20
2.0099999999999995e-08,1019205476875.9912,-7.639926966753806e+20,531.7636601543594,2.5191866304397777e+20
