t(s),Adsorbed H on surface 1 (H m-2),solute flux surface 1 (H m-2 s-1),Total T surface 1 (K),0 value at [0] (H m-3)
1e-10,213.23604713074232,-71766406664.14761,300.0708598183439,8193209211081.914
2e-10,633.9356850236917,-154573775899.72623,300.10882687433025,16148812858389.78
3e-10,1256.1103440572365,-247809190006.1353,300.13929861620153,23863810706792.7
4e-10,2073.907319688524,-351027709875.4649,300.1664291666886,31345083970856.85
5e-10,3081.664577312057,-463815750688.29626,300.19175525470797,38600823559424.33
6e-10,4273.9312653312145,-585783316015.5153,300.2160389736506,45639665158452.36
7e-10,5645.475054076355,-716560952128.4163,300.23972402505683,52470337638931.75
7.999999999999999e-10,7191.283288643479,-855798113009.8009,300.26309713456124,59101495227952.08
8.999999999999999e-10,8906.560906589575,-1003162070822.7877,300.2863580225595,65541630084762.12
9.999999999999999e-10,10786.726562806602,-1158337076482.2231,300.3096540752589,71799024946723.44
1.1e-09,12827.40773986833,-1321023652022.5833,300.33309924694004,77881727635733.08
1.2e-09,15024.43529474036,-1490937961876.8555,300.3567851348983,83797538295599.8
1.3e-09,17373.83771714865,-1667811237406.6116,300.38078784502255,89554004405885.28
1.4000000000000001e-09,19871.835274404457,-1851389241384.1829,300.4051724462044,95158420712038.92
1.5000000000000002e-09,22514.834156922676,-2041431765123.8945,300.4299959711903,100617832337244.92
1.6000000000000003e-09,25299.420700623214,-2237712154023.2075,300.45530950333625,105939039981246.7
1.7000000000000003e-09,28222.35573767542,-2440016858907.068,300.48115966770104,111128606492446.77
1.8000000000000004e-09,31280.569110517714,-2648145011469.6045,300.5075897220178,116192864335549.38
1.9000000000000005e-09,34471.154372785495,-2861908022620.3613,300.53464037175667,121137923628108.19
2.0000000000000005e-09,37791.36369291405,-3081129202843.3193,300.5623503905277,125969680518903.67
2.1000000000000006e-09,41238.60297062943,-3305643403859.983,300.59075710035813,130693825748337.53
2.2000000000000007e-09,44810.427172580356,-3535296681003.95,300.6198967492856,135315853277470.12
2.3000000000000007e-09,48504.53589052415,-3769945975792.03,300.649804812499,139841068904999.66
2.400000000000001e-09,52318.76912344088,-4009458818232.8306,300.6805162357405,144274598814861.9
2.500000000000001e-09,56251.103283493794,-4253713048457.4814,300.71206563453984,148621398014100.47
2.600000000000001e-09,60299.64742472709,-4502596557293.57,300.7444874592661,152886258633144.16
2.700000000000001e-09,64462.63969268584,-4756007045436.971,300.77781613344763,157073818069914.7
2.800000000000001e-09,68738.44399267947,-5013851800907.96,300.8120861709842,161188566966168.84
2.900000000000001e-09,73125.5468741319,-5276047494509.332,300.8473322765476,165234857009773.5
3.0000000000000012e-09,77622.55462832707,-5542519993036.429,300.88358943248596,169216908560660.25
3.1000000000000013e-09,82228.19059683614,-5813204190021.39,300.92089297481414,173138818101324.66
3.2000000000000014e-09,86941.2926879797,-6088043853827.888,300.9592786603204,177004565515156.6
3.3000000000000014e-09,91760.81109881612,-6366991492947.646,300.99878272639944,180818021197780.34
3.4000000000000015e-09,96685.80624034369,-6650008238386.234,301.0394419448951,184582953008073.7
3.5000000000000016e-09,101715.44686384848,-6937063743063.797,301.08129367098826,188303033066721.4
3.6000000000000016e-09,106849.00838661489,-7228136098195.704,301.124375887966,191981844411112.47
3.7000000000000017e-09,112085.87141553596,-7523211766659.18,301.1687272485539,195622887516164.12
3.800000000000002e-09,117425.52046751164,-7822285533395.099,301.2143871133717,199229586691302.78
3.900000000000002e-09,122867.54288590216,-8125360472938.793,301.26139558697054,202805296364373.9
4.000000000000002e-09,128411.62795270947,-8432447934221.076,301.30979355183644,206353307263728.75
4.100000000000002e-09,134057.56619658959,-8743567542829.251,301.3596227006737,209876852510158.3
4.200000000000002e-09,139805.24889725444,-9058747220970.408,301.4109255672367,213379113630739.34
4.300000000000002e-09,145654.66778730118,-9378023225432.924,301.46374555593013,216863226507031.06
4.400000000000002e-09,151605.91495301257,-9701440203899.844,301.51812697036684,220332287270435.0
4.500000000000002e-09,157659.18293620343,-10029051270028.002,301.57411504103976,223789358157905.66
4.600000000000002e-09,163814.7650397476,-10360918097771.227,301.6317559522444,227237473341594.97
4.700000000000002e-09,170073.05584000945,-10697111035493.07,301.69109686836356,230679644746428.78
4.8000000000000024e-09,176434.55191002425,-11037709240487.318,301.7521859596129,234118867870062.66
4.9000000000000025e-09,182899.85275792805,-11382800834600.867,301.81507242733005,237558127620150.22
5.0000000000000026e-09,189469.66198582933,-11732483081735.195,301.8798065288771,241000404184388.12
5.100000000000003e-09,196144.78867504888,-12086862588090.564,301.9464396022185,244448678949385.94
5.200000000000003e-09,202926.14900443156,-12446055526110.016,302.0150240902252,247905940485048.88
5.300000000000003e-09,209814.7681092588,-12810187883180.656,302.08561356474945,251375190611867.9
5.400000000000003e-09,216811.78218917022,-13179395736257.697,302.1582627505088,254859450569288.44
5.500000000000003e-09,223918.4408744385,-13553825553692.008,302.23302754881144,258361767304186.44
5.600000000000003e-09,231136.10986094075,-13933634525666.713,302.30996506114974,261885219899421.16
5.700000000000003e-09,238466.27382523933,-14318990924783.42,302.389133612687,265432926163473.8
5.800000000000003e-09,245910.53963232876,-14710074498482.889,302.4705927756549,269008049403317.97
5.900000000000003e-09,253470.63984983298,-15107076895143.605,302.5544033926807,272613805403923.62
6.000000000000003e-09,261148.4365837565,-15510202125870.418,302.6406276000557,276253469639171.06
6.100000000000003e-09,268945.9256523104,-15919667064171.084,302.7293288509576,279930384740457.8
6.200000000000003e-09,276865.2411158628,-16335701985918.34,302.8205719386345,283647968250940.0
6.3000000000000035e-09,284908.66018271033,-16758551152213.482,302.91442301955925,287409720695161.44
6.4000000000000035e-09,293078.60851214785,-17188473438003.637,303.01094963655754,291219233995809.75
6.500000000000004e-09,301377.6659382356,-17625743009563.58,303.11022074191436,295080200271518.7
6.600000000000004e-09,309808.5726397473,-18070650054234.348,303.2123067204609,298996421052014.1
6.700000000000004e-09,318374.23578403814,-18523501566117.47,303.31727941264256,302971816949513.8
6.800000000000004e-09,327077.73667501955,-18984622191759.746,303.4252121375678,307010437828144.6
6.900000000000004e-09,335922.3384380855,-19454355140229.863,303.53617971603677,311116473516267.25
7.000000000000004e-09,344911.4942777249,-19933063162389.69,303.65025849354635,315294265110018.56
7.100000000000004e-09,354048.8563466962,-20421129604602.71,303.76752636326967,319548316920129.4
7.200000000000004e-09,363338.28526906564,-20918959542604.207,303.8880627890042,323883309118172.75
7.300000000000004e-09,372783.8603631381,-21426981001786.92,304.0119488280851,328304111142890.75
7.400000000000004e-09,382389.89061438316,-21945646270736.312,304.13926715425674,332815795932163.1
7.500000000000004e-09,392160.9264529003,-22475433315488.57,304.27010208049677,337423655051570.6
7.600000000000004e-09,402101.772394824,-23016847302686.6,304.40453958178483,342133214796406.06
7.700000000000003e-09,412217.50061238173,-23570422240582.445,304.5426673178088,346950253350462.6
7.800000000000002e-09,422513.46550312964,-24136722747687.574,304.68457465560033,351880819092022.94
7.900000000000001e-09,432995.3193352602,-24716345959810.367,304.83035269208955,356931250145256.75
8e-09,443669.02905285754,-25309923587259.3,304.980094276571,362108195283782.6
8.1e-09,454540.8943326362,-25918124135134.77,305.1338940330697,367418636302527.3
8.199999999999999e-09,465617.5669921105,-26541655300898.844,305.2918483825973,372869911984320.56
8.299999999999998e-09,476906.07185838453,-27181266564814.81,305.4540555652874,378469743798988.4
8.399999999999997e-09,488413.8292169172,-27837751990398.21,305.62061566239777,384226263485156.44
8.499999999999997e-09,500148.6789708052,-28511953253742.395,305.79163061816917,390148042678669.5
8.599999999999996e-09,512118.90665344585,-29204762922487.87,305.96720426152655,396244124766606.8
8.699999999999995e-09,524333.271451027,-29917128007322.223,306.14744232761126,402524059162468.6
8.799999999999994e-09,536801.03640627,-30650053811250.08,306.33245247913027,408997938216394.8
8.899999999999994e-09,549532.0009913926,-31404608104486.953,306.52234432750913,415676436994434.2
8.999999999999993e-09,562536.5362565336,-32181925655743.336,306.71722945383476,422570856183112.6
9.099999999999992e-09,575825.6227800786,-32983213153905.105,306.9172214295733,429693168400085.56
9.199999999999991e-09,589410.8916696882,-33809754557731.848,307.1224358370487,437056068218748.6
9.29999999999999e-09,603304.6688875788,-34662916915226.18,307.33299028966667,444673026244613.94
9.39999999999999e-09,617520.0232010424,-35544156698828.55,307.5490044518684,452558347614346.25
9.499999999999989e-09,632070.8180896175,-36455026707625.16,307.7706000587987,460727235324957.7
9.599999999999988e-09,646971.7679740923,-37397183593384.52,307.99790093567174,469195858841166.06
9.699999999999988e-09,662238.4991700368,-38372396073538.64,308.2310330168184,477981428473791.5
9.799999999999987e-09,677887.6160102609,-39382553901287.47,308.47012436439803,487102276071777.5
9.899999999999986e-09,693936.7726269958,-40429677670923.85,308.7153051867579,496577942625553.8
9.999999999999985e-09,710404.7509362544,-41515929545364.72,308.96670785642215,506429273440623.2
1.0099999999999985e-08,727311.5454244004,-42643625002864.516,309.22446692769313,516678521608155.0
1.0199999999999984e-08,744678.4554011571,-43815245711116.58,309.48871915384706,527349460574811.6
1.0299999999999983e-08,762528.1854549514,-45033453649592.41,309.7596035039047,538467506697879.94
1.0399999999999982e-08,780884.9549265383,-46301106615211.45,310.03726117895997,550059852765057.75
1.0499999999999982e-08,799774.6173063512,-47621275262495.86,310.321835628046,562155613562050.8
1.059999999999998e-08,819224.7905611561,-48997261847491.805,310.6134725635204,574785984686752.6
1.069999999999998e-08,839264.9995077294,-50432620865222.53,310.91231997595014,587984415937623.5
1.079999999999998e-08,859926.8314769538,-51931181793594.01,311.2185281484762,601786800747566.6
1.0899999999999978e-08,881244.1066527037,-53497074182889.484,311.53224967063784,616231683294915.0
1.0999999999999978e-08,903253.0646281507,-55134755359688.164,311.8536394516372,631360485102169.4
1.1099999999999977e-08,925992.5688999438,-56849041047718.56,312.18285473302274,647217753133129.9
1.1199999999999976e-08,949504.3312206871,-58645139246387.52,312.5200551007714,663851431622687.8
1.1299999999999975e-08,973833.1579552002,-60528687751160.555,312.8654024967495,681313160123711.1
1.1399999999999975e-08,999027.2208395773,-62505795749365.07,313.2190612295295,699658600535519.6
1.1499999999999974e-08,1025138.3548278933,-64583089981224.21,313.5811979845434,718947796192167.6
1.1599999999999973e-08,1052222.386033947,-66767766020009.586,313.9519818335507,739245566440416.5
1.1699999999999972e-08,1080339.4931396998,-69067645298289.31,314.3315842433984,760621940531717.1
1.1799999999999972e-08,1109554.6060538332,-71491238590703.36,314.7201790840536,783152635095249.8
1.1899999999999971e-08,1139937.8460696952,-74047816759071.6,315.11794263588456,806919579956295.9
1.199999999999997e-08,1171565.0122994103,-76747489674750.77,315.5250535961702,832011497623018.4
1.209999999999997e-08,1204518.1197587687,-79601294358108.14,315.941693084815,858524542393171.5
1.2199999999999969e-08,1238885.9951556756,-82621293518203.27,316.36804464924677,886563005739414.8
1.2299999999999968e-08,1274764.93720488,-85820685840123.56,316.80429426847695,916240095428241.2
1.2399999999999967e-08,1312259.4491666397,-89213929556183.47,317.25063035629904,947678796724761.5
1.2499999999999966e-08,1351483.0523020842,-92816881054237.48,317.7072437636036,981012825047249.5
1.2599999999999966e-08,1392559.1900708503,-96646950526158.2,318.1743277797883,1016387680576720.2
1.2699999999999965e-08,1435622.2341872756,-100723276947308.23,318.6520781332391,1053961816615342.1
1.2799999999999964e-08,1480818.6051233574,-105066925009732.2,319.14069299086094,1093907934943093.6
1.2899999999999963e-08,1528308.0213267892,-109701107014936.56,319.6403729566358,1136414423067481.8
1.2999999999999963e-08,1578264.893341795,-114651433174881.42,320.1513210691848,1181686950122239.5
1.3099999999999962e-08,1630879.8812152685,-119946194281988.92,320.67374279831245,1229950240277328.2
1.3199999999999961e-08,1686361.6360826213,-125616681302041.84,321.2078460405106,1281450044908147.2
1.329999999999996e-08,1744938.7497051659,-131697547131300.81,321.7538411134002,1336455337475200.2
1.339999999999996e-08,1806861.9390298978,-138227216556822.89,322.3119407490873,1395260758130893.2
1.3499999999999959e-08,1872406.4966284055,-145248351385442.53,322.88236008641263,1458189338548230.8
1.3599999999999958e-08,1941875.0422199892,-152808378784061.56,323.4653166620721,1525595541414877.0
1.3699999999999957e-08,2015600.6154829585,-160960092127579.0,324.0610304005858,1597868653521782.2
1.3799999999999956e-08,2093950.1561099123,-169762335111377.3,324.66972360309444,1675436576474404.2
1.3899999999999956e-08,2177328.4236868797,-179280781588631.6,325.29162093496143,1758770064853749.2
1.3999999999999955e-08,2266182.417611489,-189588825581156.56,325.9269494121584,1848387468254008.2
1.4099999999999954e-08,2361006.3660739907,-200768598236147.62,326.57593838641424,1944860041138426.0
1.4199999999999953e-08,2462347.3632962005,-212912131219162.0,327.23881952910506,2048817893016965.5
1.4299999999999953e-08,2570811.74597827,-226122689216184.44,327.9158268138654,2160956661209784.2
1.4399999999999952e-08,2687072.3135000262,-240516297947663.06,328.6071964978996,2282044999593552.0
1.4499999999999951e-08,2811876.512164661,-256223498473517.53,329.3131671019732,2412932989433210.5
1.459999999999995e-08,2946055.7220116165,-273391363707248.06,330.03397938906306,2554561592909935.0
1.469999999999995e-08,3090535.805877071,-292185819098363.4,330.7698763416495,2707973286531498.5
1.4799999999999949e-08,3246349.104930383,-312794316550472.3,331.5211031376271,2874324030558356.5
1.4899999999999948e-08,3414648.0934332088,-335428919014186.25,332.28790712481845,3054896752248413.0
1.499999999999995e-08,3596720.9386239243,-360329863063368.25,333.0705377940695,3251116545519075.0
1.509999999999995e-08,3794009.2502095685,-387769678409187.3,333.8692467509103,3464567818012356.0
1.519999999999995e-08,4008128.3488747734,-418057957061475.56,334.6842876857617,3697013649063251.5
1.5299999999999952e-08,4240890.435579092,-451546881108023.94,335.5159163426709,3950417659331413.5
1.5399999999999953e-08,4494331.104490103,-488637637323871.0,336.364390486559,4226968735574032.0
1.5499999999999954e-08,4770739.713696569,-529787869611029.0,337.2299698689634,4529109003035284.0
1.5599999999999954e-08,5072694.211139604,-575520347282443.0,338.1129161922595,4859565494153371.0
1.5699999999999955e-08,5403101.1105844695,-626433059253588.8,339.01349307234545,5221386026833972.0
1.5799999999999956e-08,5765241.426402222,-683210982262875.6,339.9319659997745,5617979879671967.0
1.5899999999999957e-08,6162823.509356428,-746639816472758.6,340.86860229932176,6053163936680032.0
1.5999999999999958e-08,6600043.88194155,-817622035603877.0,341.82367108796944,6531215071986519.0
1.609999999999996e-08,7081657.355169879,-897195662801128.6,342.79744323129836,7056929657541160.0
1.619999999999996e-08,7613057.92386969,-986556259735885.2,343.79019129827196,7635691206362082.0
1.629999999999996e-08,8200372.190238072,-1087082707430795.9,344.80218951440156,8273547312866409.0
1.639999999999996e-08,8850567.362334277,-1200367465859388.0,345.83371371327974,8977297223349252.0
1.6499999999999962e-08,9571576.223393962,-1328252129018146.8,346.88504128647196,9754591567176830.0
1.6599999999999963e-08,10372441.878759453,-1472869247100277.8,347.95645113175584,1.0614046006745496e+16
1.6699999999999964e-08,11263485.571080087,-1636691572682572.2,349.0482235996981,1.1565370826357584e+16
1.6799999999999965e-08,12256501.424550725,-1822590109569344.2,350.1606404385601,1.261951878222975e+16
1.6899999999999966e-08,13364982.651118856,-2033902608470116.0,351.29398473752445,1.3788853884064266e+16
1.6999999999999967e-08,14604384.54454621,-2274514471880657.5,352.44854086823455,1.5087344180129212e+16
1.7099999999999968e-08,15992430.524216488,-2548954412074194.5,353.6245944246403,1.6530782080873538e+16
1.719999999999997e-08,17549468.596073702,-2862507663879797.0,354.8224321611443,1.8137036290302092e+16
1.729999999999997e-08,19298886.904467113,-3221350103481178.5,356.04234192904374,1.9926340030694908e+16
1.739999999999997e-08,21267598.593303625,-3632707284584687.5,357.28461261126233,2.192162095753669e+16
1.749999999999997e-08,23486608.022153705,-4105043196647806.0,358.54953405537043,2.4148878982474956e+16
1.7599999999999972e-08,25991672.545608975,-4648284503803134.0,359.8373970048891,2.6637619169790652e+16
1.7699999999999973e-08,28824076.62503861,-5274087170724991.0,361.14849302887797,2.942134796593307e+16
1.7799999999999974e-08,32031538.075644337,-5996153762915360.0,362.48311444980374,3.2538142284884908e+16
1.7899999999999975e-08,35669269.84727352,-6830611372004993.0,363.8415542696918,3.603130243075444e+16
1.7999999999999976e-08,39801225.00063118,-7796462120006968.0,365.22410609455983,3.99501015233694e+16
1.8099999999999977e-08,44501557.59729979,-8916120610523925.0,366.63106405713637,4.4350646037789416e+16
1.8199999999999978e-08,49856338.22229835,-1.0216055604900166e+16,368.06272273786624,4.929686431496942e+16
1.829999999999998e-08,55965569.980357006,-1.1727556710206278e+16,369.5193770842074,5.4861642494925464e+16
1.839999999999998e-08,62945559.26428219,-1.3487651098205818e+16,371.0013223282229,6.112813031944376e+16
1.849999999999998e-08,70931705.63895328,-1.5540200380490392e+16,372.5088539024744,6.81912427106468e+16
1.859999999999998e-08,80081787.11916594,-1.7937213926537672e+16,374.04226735422367,7.61593870260327e+16
1.8699999999999982e-08,90579831.30281362,-2.0740422348146252e+16,375.6018582579487,8.515645050226674e+16
1.8799999999999983e-08,102640679.68039627,-2.4023163850824084e+16,377.18792212618496,9.532408772381734e+16
1.8899999999999984e-08,116515372.48674837,-2.7872646990657052e+16,378.8007543186999,1.0682435409760027e+17
1.8999999999999985e-08,132497505.29744607,-3.2392666460858784e+16,380.4406499500114,1.1984273840663184e+17
1.9099999999999986e-08,150930736.92234018,-3.7706864332636344e+16,382.1079037952633,1.3459165569861115e+17
1.9199999999999987e-08,172217661.87118378,-4.3962648253800376e+16,383.8028101944694,1.5131447120515418e+17
1.9299999999999988e-08,196830300.78383192,-5.133590114559722e+16,385.5256629551398,1.7029013687452202e+17
1.939999999999999e-08,225322509.9465561,-6.00366447533858e+16,387.2767552533063,1.9183853465363958e+17
1.949999999999999e-08,258344667.80383694,-7.031585298819722e+16,389.05637953295985,2.1632663512459408e+17
1.959999999999999e-08,296661063.94266105,-8.247365153439851e+16,390.86482740392023,2.4417559677383354e+17
1.969999999999999e-08,341170496.420014,-9.686918912710341e+16,392.702389538154,2.7586895037781008e+17
1.9799999999999992e-08,392930678.9557708,-1.1393252494675507e+17,394.56935556456085,3.1196203510310074e+17
1.9899999999999993e-08,453187173.311648,-1.341789478122409e+17,396.46601396224867,3.530928783722521e+17
1.9999999999999994e-08,523407697.55330265,-1.582262287717364e+17,398.39265195231894,3.999947408300615e+17
2.0099999999999995e-08,605322821.9197433,-1.8681541228751766e+17,400.3495553881848,4.535105814193466e+17
2.0199999999999996e-08,700974255.5341377,-2.2083587608218723e+17,402.33700864444535,5.146097362796646e+17
2.0299999999999996e-08,812772154.9131557,-2.6135554017062797e+17,404.3552945043422,5.844071496447977e+17
