t(s),Adsorbed H on surface 1 (H m-2),solute flux surface 1 (H m-2 s-1),Total T surface 1 (K),0 value at [0] (H m-3)
1e-08,0.008806247016675947,-5535.687393907183,301.3013289345539,3278433.596346934
2e-08,0.008806247016675947,-5814.973688441455,303.2278066995115,3278433.596346934
3.0000000000000004e-08,0.008806247016675947,-6173.373461976817,305.6047647223442,3278433.596346934
4e-08,0.008806247016675947,-6605.723776003589,308.34202056691987,3278433.596346934
5e-08,0.008806247016675947,-7111.290710322353,311.38175204775257,3278433.596346934
6e-08,0.008806247016675947,-7691.600817683199,314.6825296816537,3278433.596346934
6.999999999999999e-08,0.008806247016675947,-8349.54029065224,318.21263513083113,3278433.596346934
7.999999999999999e-08,0.008806247016675947,-9088.899943973789,321.9466917987941,3278433.596346934
8.999999999999999e-08,0.008806247016675947,-9914.112353655735,325.86375235110114,3278433.596346934
9.999999999999998e-08,0.008806247016675947,-10830.082974510236,329.9461190993533,3278433.596346934
1.0999999999999998e-07,0.008806247016675947,-11841.579629996151,334.1765588313396,3278433.596346934
1.2e-07,0.008806247016675947,-12954.482487805017,338.54354719783737,3278433.596346934
1.3e-07,0.008806247016675947,-14174.559460922685,343.03561509321645,3278433.596346934
1.4e-07,0.008806247016675947,-15507.645687347169,347.6423189015649,3278433.596346934
1.5000000000000002e-07,0.008806247016675947,-16959.648831954604,352.35427671371076,3278433.596346934
1.6000000000000003e-07,0.008806247016675947,-18536.50253267263,357.1630131811713,3278433.596346934
1.7000000000000004e-07,0.008806247016675947,-20244.121277010418,362.06082850108163,3278433.596346934
1.8000000000000005e-07,0.008806247016675947,-22088.358461596934,367.0406926584937,3278433.596346934
1.9000000000000006e-07,0.008806247016675947,-24074.967517910656,372.09615945279006,3278433.596346934
2.0000000000000007e-07,0.008806247016675947,-26209.565949686024,377.22129576629357,3278433.596346934
2.1000000000000008e-07,0.008806247016675947,-28497.60221036998,382.41062269553845,3278433.596346934
2.200000000000001e-07,0.008806247016675947,-30944.325407043918,387.6590660400172,3278433.596346934
2.300000000000001e-07,0.008806247016675947,-33554.75784486499,392.96191426838647,3278433.596346934
2.400000000000001e-07,0.008806247016675947,-36333.67043185152,398.314782530688,3278433.596346934
2.500000000000001e-07,0.008806247016675947,-39285.56095550215,403.7135816115013,3278433.596346934
2.600000000000001e-07,99225.23332271125,-433630151939.7922,409.1544909600194,4849144890649.223
2.700000000000001e-07,305569.7608610203,-1397470020625.5547,414.6339351137192,9355788832223.082
2.800000000000001e-07,682496.7194530973,-3261027227624.2744,420.14856296951524,15879519462924.41
2.9000000000000014e-07,1349903.5016793853,-6742839505343.622,425.6952294617741,26164473280358.273
3.0000000000000015e-07,2511577.4755581156,-13124744603634.787,431.27097928854965,42441756515445.92
3.1000000000000016e-07,4505766.95516537,-24639585597416.59,436.87303239177703,67999504365097.79
3.2000000000000017e-07,7886669.252391849,-45118024574797.15,442.4987709481741,107755420905925.94
3.300000000000002e-07,13552031.19145319,-81041533288616.39,448.1457276683789,169017369823401.12
3.400000000000002e-07,22940220.456961296,-143230118400052.7,453.8115752347032,262545498277971.25
3.500000000000002e-07,38331128.24263355,-249509850014801.6,459.4941167345502,404034893326197.9
3.600000000000002e-07,63300624.7029283,-428872574774492.6,465.1912769683423,616168255717840.0
3.700000000000002e-07,103412416.72018072,-728018390230357.5,470.90595906396265,931680316560540.0
3.800000000000002e-07,167213227.97787878,-1220950006449158.2,476.6313954892326,1396719531228177.2
3.9000000000000024e-07,267710400.13183534,-2023688182751567.8,482.3656511475202,2076333806738005.5
4.0000000000000025e-07,424510721.0885055,-3315981968305419.5,488.10709118071236,3061335317602937.0
4.1000000000000026e-07,666890713.6457372,-5373128627410531.0,493.854172472041,4477437622428481.5
4.2000000000000027e-07,1038163466.6373787,-8612063153479578.0,499.60542912027694,6497266683756235.0
4.300000000000003e-07,1601832609.2818227,-1.3657371428803542e+16,505.35946825285436,9356006377302634.0
4.400000000000003e-07,2450187119.2897162,-2.1434814055851548e+16,511.11496686426085,1.3371614289777018e+16
4.500000000000003e-07,3716200133.609026,-3.330242909970116e+16,516.8706687235625,1.897074044619903e+16
4.600000000000003e-07,5589861455.984451,-5.1232431641114584e+16,522.6253812929549,2.67217070899726e+16
4.700000000000003e-07,8340409519.307808,-7.806108266433765e+16,528.3779727021107,3.73761646487546e+16
4.800000000000003e-07,12346348609.034872,-1.1782861256241731e+17,534.1273688176464,5.19213294781197e+16
4.900000000000003e-07,18135657712.116623,-1.7623732475211706e+17,539.8725504311732,7.16450343321813e+16
5.000000000000003e-07,26439237130.703724,-2.6126335692207222e+17,545.6125505773177,9.821618374638931e+16
5.100000000000003e-07,38261418948.53677,-3.839664389752775e+17,551.3464519853147,1.3378360408053088e+17
5.200000000000003e-07,54972310796.94628,-5.595525663366187e+17,557.0733846630854,1.810967117072427e+17
5.300000000000003e-07,78427874634.88321,-8.087570213028355e+17,562.792523609977,2.436518919316149e+17
5.400000000000003e-07,111124991123.38979,-1.1596298438003692e+18,568.5030866528421,3.2586898417334976e+17
5.500000000000003e-07,156400355394.97736,-1.6498228960991688e+18,574.2043323993801,4.333028034783006e+17
5.600000000000004e-07,218683923227.58618,-2.329497298060921e+18,579.8955583023774,5.728951915391063e+17
5.700000000000004e-07,303819811098.01416,-3.2649924338152714e+18,585.5760988284688,7.532736783261716e+17
5.800000000000004e-07,419470083899.81934,-4.543423134072243e+18,591.2453237252062,9.851034436498115e+17
5.900000000000004e-07,575619775806.0449,-6.278400184546431e+18,596.9026363804626,1.281499891270084e+18
6.000000000000004e-07,785204818900.3673,-8.617101135249175e+18,602.5474722685088,1.658509780652978e+18
6.100000000000004e-07,1064888336892.9023,-1.174895358775387e+19,608.179297477423,2.1356694966386386e+18
6.200000000000004e-07,1436015033085.3113,-1.5916231777027713e+19,613.7976073128241,2.736649668085582e+18
6.300000000000004e-07,1925778197286.665,-2.1426909353371595e+19,619.4019249732434,3.4899959654444324e+18
6.400000000000004e-07,2568639208446.7764,-2.867015676845972e+19,624.9918002927599,4.429976506228257e+18
6.500000000000004e-07,3408045348860.104,-3.813492047987773e+19,630.5668085468311,5.597546868139809e+18
6.600000000000005e-07,4498498299356.869,-5.0432073150575804e+19,636.126549317517,7.041444243490785e+18
6.700000000000005e-07,5908032876635.598,-6.6320678904841535e+19,641.6706454145688,8.819422756459641e+18
6.800000000000005e-07,7721173422976.457,-8.673897520846522e+19,647.1987418490919,1.0999642397231272e+19
6.900000000000005e-07,10042443778845.143,-1.1284073268491744e+20,652.710504856721,1.3662224394195024e+19
7.000000000000005e-07,13000515378640.506,-1.4603766957723627e+20,658.2056209674541,1.6900983249098453e+19
7.100000000000005e-07,16753090561805.422,-1.8804891148951218e+20,663.6837961194902,2.082536164422984e+19
7.200000000000005e-07,21492623736552.047,-2.409579706951458e+20,669.1447548145889,2.5562558311002567e+19
7.300000000000005e-07,27452999036725.15,-3.072785026478975e+20,674.5882393126424,3.1259883246649917e+19
7.400000000000005e-07,34917292534603.484,-3.900296505486139e+20,680.0140088633041,3.808734441409027e+19
7.500000000000005e-07,44226760017954.766,-4.9282204058958365e+20,685.4218389726533,4.624048014012756e+19
7.600000000000006e-07,55791204239746.42,-6.199555148565223e+20,690.8115207030118,5.594344981087041e+19
7.700000000000006e-07,70100888924301.414,-7.765297383515486e+20,696.182860004155,6.745239462506278e+19
7.800000000000006e-07,87740180534237.48,-9.685688582885852e+20,701.5356770742601,8.105907920679055e+19
7.900000000000006e-07,109403112740878.58,-1.2031614251406884e+21,706.869805749048,9.709482361808593e+19
8.000000000000006e-07,135911082534414.47,-1.488616802680541e+21,712.1850929176694,1.159347336808128e+20
8.100000000000006e-07,168232900753721.94,-1.8346392944775374e+21,717.4813979639711,1.3800223543525191e+20
8.200000000000006e-07,207507433251494.5,-2.2525211920675627e+21,722.7585922318706,1.6377391692968686e+20
8.300000000000006e-07,255069081614810.22,-2.755355899180602e+21,728.0165585136338,1.937846772267346e+20
8.400000000000006e-07,312476363930284.06,-3.358272199430572e+21,733.2551905599264,2.286331783755206e+20
8.500000000000006e-07,381543866012627.1,-4.0786906024150413e+21,738.4743926105804,2.689875909481929e+20
8.600000000000007e-07,464377841179713.4,-4.936602513807396e+21,743.6740789450729,3.155916173506072e+20
8.700000000000007e-07,563415741281388.2,-5.954872714838119e+21,748.854173451773,3.6927076922347304e+20
8.800000000000007e-07,681469962319116.0,-7.15956528877841e+21,754.0146092150729,4.309388655382137e+20
8.900000000000007e-07,821776083460838.8,-8.58029267664354e+21,759.1553281195552,5.0160470609831907e+20
9.000000000000007e-07,988045867139561.2,-1.0250586957772694e+22,764.2762804704164,5.823788606704793e+20
9.100000000000007e-07,1184525268511826.0,-1.2208291705937929e+22,769.3774246293872,6.744804964333839e+20
9.200000000000007e-07,1416057672797210.8,-1.4495971837239506e+22,774.4587266654487,7.792441453554513e+20
9.300000000000007e-07,1688152536506418.5,-1.7161337708039933e+22,779.5201600196709,8.981262879900061e+20
9.400000000000007e-07,2007059550480683.0,-2.0257678303040647e+22,784.5617051835453,1.0327116005190745e+21
9.500000000000008e-07,2379848365788955.0,-2.3844296638181648e+22,789.5833493902071,1.1847186772613383e+21
9.600000000000008e-07,2814493824251885.5,-2.798693845541741e+22,794.5850863179779,1.3560050009974073e+21
9.700000000000007e-07,3319966509743929.5,-3.2758202878097067e+22,799.5669158056971,1.5485708883003866e+21
9.800000000000006e-07,3906328280320226.0,-3.823792091062049e+22,804.5288435793165,1.7645620868971784e+21
9.900000000000005e-07,4584832250476410.0,-4.451348450902398e+22,809.4708809892911,2.0062706477638426e+21
1.0000000000000004e-06,5368026463648426.0,-5.1680105456581055e+22,814.3930447582878,2.2761336377509793e+21
1.0100000000000003e-06,6269860224348502.0,-5.9840979532231565e+22,819.295356738785,2.576729201607516e+21
1.0200000000000002e-06,7305791745480660.0,-6.91073276033198e+22,824.177843680142,2.9107694291508024e+21
1.03e-06,8492895410000592.0,-7.959828153171028e+22,829.0405370047428,3.2810894393979673e+21
1.04e-06,9849966551084926.0,-9.144057947720052e+22,833.8834725928392,3.6906320659178e+21
1.05e-06,1.1397621229779368e+16,-1.047680327538775e+23,838.706690575731,4.142427525647891e+21
1.0599999999999998e-06,1.3158388048020614e+16,-1.1972072541015641e+23,843.5102351369454,4.6395674880826e+21
1.0699999999999997e-06,1.5156788599567684e+16,-1.3644390885317393e+23,848.2941543210862,5.185173045870629e+21
1.0799999999999996e-06,1.7419402761815634e+16,-1.550865579176144e+23,853.0584998500461,5.782356235202076e+21
1.0899999999999995e-06,1.997491470700064e+16,-1.7579956263455913e+23,857.8033269462824,6.434174978273789e+21
1.0999999999999994e-06,2.2854135310333856e+16,-1.9873354239732445e+23,862.528694162876,7.143581631583053e+21
1.1099999999999993e-06,2.60899966111384e+16,-2.240362868880206e+23,867.2346632201053,7.913365728658176e+21
1.1199999999999992e-06,2.971751420144639e+16,-2.518498513123014e+23,871.9212988482734,8.74609200137933e+21
1.1299999999999991e-06,3.3773713933843644e+16,-2.8230736192187985e+23,876.5886686365462,9.644035335218918e+21
1.139999999999999e-06,3.829752020649875e+16,-3.1552962043490414e+23,881.2368428875653,1.0609114929584725e+22
1.149999999999999e-06,4.332960432870896e+16,-3.5162163077438073e+23,885.8658944776115,1.1642830545685989e+22
1.1599999999999988e-06,4.891219309434852e+16,-3.9066920545326577e+23,890.475898722103,1.2746204263167189e+22
1.1699999999999988e-06,5.508883965036667e+16,-4.327358378676216e+23,895.0669332462262,1.3919731550198994e+22
1.1799999999999987e-06,6.190416094886627e+16,-4.778600459458097e+23,899.6390778604939,1.516334558945074e+22
1.1899999999999986e-06,6.940354836571353e+16,-5.260533971330884e+23,904.1924144410581,1.6476398609259968e+22
1.1999999999999985e-06,7.763286025783715e+16,-5.7729941031854205e+23,908.727026814579,1.785766338185029e+22
1.2099999999999984e-06,8.663810708252488e+16,-6.315534943928743e+23,913.2430006474908,1.930535704472984e+22
1.2199999999999983e-06,9.646514097321355e+16,-6.88744025542353e+23,917.7404233394955,2.081718800888645e+22
1.2299999999999982e-06,1.0715936214042838e+17,-7.487745892001133e+23,922.2193839211212,2.239042503393223e+22
1.239999999999998e-06,1.187654539888317e+17,-8.115273242039334e+23,926.6799729552007,2.402198573418929e+22
1.249999999999998e-06,1.3132715735312616e+17,-8.768672154181347e+23,931.12228244212,2.570854003604473e+22
1.2599999999999979e-06,1.4488709181699302e+17,-9.446470978136481e+23,935.5464057286957,2.7446622659562976e+22
1.2699999999999978e-06,1.5948662887415082e+17,-1.014713070683734e+24,939.9524374205522,2.9232747751857724e+22
1.2799999999999977e-06,1.751658180099739e+17,-1.0869099842843787e+24,944.3404732978651,3.1063518505185107e+22
1.2899999999999976e-06,1.9196336298747494e+17,-1.1610866580807772e+24,948.710610234349,3.2935725011284823e+22
1.2999999999999975e-06,2.0991664209420176e+17,-1.237100520612626e+24,953.0629461193719,3.484642469519674e+22
1.3099999999999974e-06,2.2906176319251424e+17,-1.3148214215503182e+24,957.3975797830816,3.679300129904215e+22
1.3199999999999973e-06,2.494336423757552e+17,-1.3941344484857482e+24,961.7146109244321,3.87732003374279e+22
1.3299999999999972e-06,2.710660940094481e+17,-1.4749416734831774e+24,966.0141400420089,4.078514097277881e+22
1.3399999999999971e-06,2.939919199412368e+17,-1.5571628458288886e+24,970.2962683675495,4.282730611817577e+22
1.349999999999997e-06,3.1824298658569914e+17,-1.6407351273879157e+24,974.5610978020619,4.489851406821505e+22
1.359999999999997e-06,3.438502802265022e+17,-1.7256120277989757e+24,978.8087308544477,4.699787595656371e+22
1.3699999999999968e-06,3.7084393296990637e+17,-1.8117617342080786e+24,983.0392705825407,4.912474379543346e+22
1.3799999999999967e-06,3.9925321405877875e+17,-1.8991650437623047e+24,987.2528205364729,5.127865379742381e+22
1.3899999999999966e-06,4.291064834679713e+17,-1.9878130991779646e+24,991.4494847042863,5.3459269204819625e+22
1.3999999999999965e-06,4.6043110665503194e+17,-2.0777051030899705e+24,995.6293674597089,5.5666326082940905e+22
1.4099999999999965e-06,4.932533309065552e+17,-2.1688461514412557e+24,999.7925735120173,5.789958461178158e+22
1.4199999999999964e-06,5.275981248413878e+17,-2.261245285845939e+24,1003.939207857916,6.0158787463210756e+22
1.4299999999999963e-06,5.6348898331081517e+17,-2.3549138249054985e+24,1008.0693757353537,6.244362598327898e+22
1.4399999999999962e-06,6.009477002241495e+17,-2.449863998879955e+24,1012.1831825792152,6.475371418103238e+22
1.449999999999996e-06,6.399941118079692e+17,-2.5461078834552654e+24,1016.2807339788208,6.708856999223886e+22
1.459999999999996e-06,6.806458125746714e+17,-2.643656607717412e+24,1020.362135637164,6.944760294353091e+22
1.4699999999999959e-06,7.229178459266701e+17,-2.7425197987559335e+24,1024.427493331835,7.183010717136729e+22
1.4799999999999958e-06,7.668223709414552e+17,-2.8427052196187537e+24,1028.4769128775627,7.423525871801245e+22
1.4899999999999957e-06,8.123683065381405e+17,-2.9442185571612734e+24,1032.5105000903195,7.66621160942762e+22
1.4999999999999956e-06,8.595609539676321e+17,-3.0470633200263135e+24,1036.5283607529404,7.910962322735572e+22
1.5099999999999955e-06,9.084015984279743e+17,-3.1512408129799987e+24,1040.530600582192,8.157661406822702e+22
1.5199999999999954e-06,9.588870906008298e+17,-3.2567501607771984e+24,1044.517325197249,8.406181829090987e+22
1.5299999999999953e-06,1.0110094090405362e+18,-3.363588361628689e+24,1048.4886400895268,8.65638676582077e+22
1.5399999999999952e-06,1.0647552046228188e+18,-3.471750356523796e+24,1052.4446505938179,8.908130274570554e+22
1.5499999999999951e-06,1.1201053286714089e+18,-3.581229105766581e+24,1056.3854618606924,9.161257980472996e+22
1.559999999999995e-06,1.1770343469215276e+18,-3.6920156679936593e+24,1060.3111788301146,9.415607760699505e+22
1.569999999999995e-06,1.2355100421435884e+18,-3.804099279712221e+24,1064.2219062062322,9.671010415297632e+22
1.5799999999999948e-06,1.2954929090331264e+18,-3.917467435184572e+24,1068.1177484333007,9.927290314812506e+22
1.5899999999999947e-06,1.3569356458686072e+18,-4.032105967491187e+24,1071.9988096726972,1.0184266016158122e+23
1.5999999999999946e-06,1.4197826484412155e+18,-4.147999132035005e+24,1075.8651937809914,1.0441750838623269e+23
1.6099999999999945e-06,1.4839695128615557e+18,-4.265129693788564e+24,1079.717004289031,1.0699553392114952e+23
1.6199999999999944e-06,1.5494225550350525e+18,-4.383479019383059e+24,1083.5543443820104,1.0957478050090836e+23
1.6299999999999943e-06,1.6160583558527877e+18,-4.5030271748068157e+24,1087.3773168804837,1.121532536034892e+23
1.6399999999999943e-06,1.6837833424423514e+18,-4.6237530290986755e+24,1091.1860242222917,1.1472892388081145e+23
1.6499999999999942e-06,1.752493417130034e+18,-4.745634364038887e+24,1094.9805684453688,1.1729972987438456e+23
1.659999999999994e-06,1.822073647037399e+18,-4.868647989485437e+24,1098.7610511714001,1.1986358000325095e+23
1.669999999999994e-06,1.8923980284171712e+18,-4.992769863691526e+24,1102.5275735902965,1.224183538421437e+23
1.6799999999999939e-06,1.963329340859632e+18,-5.117975217675322e+24,1106.2802364454608,1.2496190274396554e+23
1.6899999999999938e-06,2.0347191072949025e+18,-5.244238682495576e+24,1110.0191400198153,1.2749204990123496e+23
1.6999999999999937e-06,2.106407676192926e+18,-5.371534418114742e+24,1113.7443841225638,1.3000658998472235e+23
1.7099999999999936e-06,2.178224442429218e+18,-5.499836242400922e+24,1117.4560680766629,1.3250328854230166e+23
1.7199999999999935e-06,2.2499882228448689e+18,-5.62911775872937e+24,1121.1542907069747,1.3497988138500617e+23
1.7299999999999934e-06,2.3215078014900787e+18,-5.759352480591276e+24,1124.8391503290804,1.374340742279742e+23
1.7399999999999933e-06,2.3925826578158766e+18,-5.890513951600792e+24,1128.5107447387275,1.398635428887132e+23
1.7499999999999932e-06,2.463003888598202e+18,-6.022575859310757e+24,1132.1691712018876,1.4226593437101366e+23
1.759999999999993e-06,2.532555331095496e+18,-6.155512141303572e+24,1135.8145264454079,1.4463886917704384e+23
1.769999999999993e-06,2.601014890840871e+18,-6.289297082115748e+24,1139.4469066482263,1.4697994518976953e+23
1.779999999999993e-06,2.6681560725789624e+18,-6.42390539968412e+24,1143.066407433139,1.4928674345048347e+23
1.7899999999999928e-06,2.7337497072499645e+18,-6.559312320167313e+24,1146.6731238590926,1.5155683611991972e+23
1.7999999999999927e-06,2.7975658617264466e+18,-6.695493640197883e+24,1150.2671504139857,1.5378779685510924e+23
1.8099999999999926e-06,2.859375911405533e+18,-6.832425775855692e+24,1153.8485810079626,1.559772137577878e+23
1.8199999999999925e-06,2.9189547489869573e+18,-6.970085797918498e+24,1157.4175089671744,1.5812270495501104e+23
1.8299999999999924e-06,2.9760830961114696e+18,-7.108451453236414e+24,1160.9740270279995,1.6022193676141205e+23
1.8399999999999923e-06,3.0305498783158354e+18,-7.247501172385718e+24,1164.5182273316975,1.6227264424935938e+23
1.8499999999999922e-06,3.082154618322659e+18,-7.387214064075286e+24,1168.0502014194876,1.6427265392380047e+23
1.8599999999999921e-06,3.130709798368079e+18,-7.527569897096598e+24,1171.5700402280306,1.662199080695084e+23
1.869999999999992e-06,3.176043139397392e+18,-7.668549070911741e+24,1175.0778340853024,1.6811249021751274e+23
1.879999999999992e-06,3.217999743798852e+18,-7.81013257625304e+24,1178.5736727068413,1.6994865107253242e+23
1.8899999999999919e-06,3.256444049098143e+18,-7.952301947348067e+24,1182.05764519236,1.7172683416202702e+23
1.8999999999999918e-06,3.291261542805838e+18,-8.09503920757403e+24,1185.5298400227016,1.7344570041667753e+23
