t(s),Adsorbed H on surface 1 (H m-2),solute flux surface 1 (H m-2 s-1),Total T surface 1 (K),0 value at [0] (H m-3)
1e-08,2054412.1500710547,-1300209874312.2012,301.37362413149685,763414850177605.2
2e-08,6439883.891805129,-4444186100970.065,303.40714452195806,1547651943478665.5
3.0000000000000004e-08,13720487.157549188,-10076652256953.04,305.9162081585138,2413109080029138.5
4e-08,25052354.9938601,-19634844649108.3,308.8056260822329,3498498947541869.0
5e-08,42489227.641699135,-35710389580664.97,312.01437161389805,4982892222740376.0
6e-08,69524452.79389799,-62936493812588.37,315.49872120806214,7116487029444314.0
6.999999999999999e-08,112008739.60242473,-109608188477635.03,319.22520155367096,1.0262884263036814e+16
7.999999999999999e-08,179678951.3388151,-190616419172004.78,323.16703299193466,1.4959770158584484e+16
8.999999999999999e-08,288666189.04574126,-332700202528805.3,327.30035479237216,2.200466337845335e+16
9.999999999999998e-08,465628665.8973371,-583909102921140.4,331.6079198065476,3.25849004997928e+16
1.0999999999999998e-07,754453443.4229964,-1030345880037840.6,336.0739380549532,4.845928587482966e+16
1.2e-07,1227049665.6090534,-1825650506629030.5,340.6843980715942,7.22178750669838e+16
1.3e-07,2000581940.5528493,-3242385348869098.0,345.4269291197109,1.0764963991932539e+17
1.4e-07,3264733012.5919995,-5760632367138055.0,350.2905151471102,1.6025748731429878e+17
1.5000000000000002e-07,5324423144.156143,-1.021901445393197e+16,355.26526938778994,2.3797317861983152e+17
1.6000000000000003e-07,8666100294.035973,-1.8069046016312924e+16,360.34225907738556,3.521408446241555e+17
1.7000000000000004e-07,14059595363.063698,-3.1798198293785944e+16,365.5133671645339,5.1885797074889043e+17
1.8000000000000005e-07,22713074519.850624,-5.562462949216796e+16,370.7711814664533,7.607877007397696e+17
1.9000000000000006e-07,36506431868.76971,-9.662322813418123e+16,376.10890452698834,1.1095868876724339e+18
2.0000000000000007e-07,58339357177.106384,-1.6652679272529382e+17,381.5202793609442,1.6091313674825231e+18
2.1000000000000008e-07,92645327463.65503,-2.8456909081072835e+17,386.9995275814961,2.319764320022297e+18
2.200000000000001e-07,146143236969.3911,-4.819131121766479e+17,392.54129731681803,3.3238461771427697e+18
2.300000000000001e-07,228925968882.8678,-8.084573600977304e+17,398.14061896377933,4.732946135995651e+18
2.400000000000001e-07,356021997742.08154,-1.3431599856582758e+18,403.79286728766687,6.697086621591879e+18
2.500000000000001e-07,549614630353.6261,-2.2094953243406134e+18,409.4937287137744,9.416533519426265e+18
2.600000000000001e-07,842166804725.128,-3.598296781232403e+18,415.2391729065986,1.31567169236716e+19
2.700000000000001e-07,1280781107356.0652,-5.801087731374048e+18,421.0254279203155,1.8266969460610191e+19
2.800000000000001e-07,1933229097620.9097,-9.258108792943557e+18,426.84895834734095,2.5203881511827255e+19
2.9000000000000014e-07,2896216054376.146,-1.4626672751563424e+19,432.7064460020411,3.4560194001779364e+19
3.0000000000000015e-07,4306612457308.256,-2.2877280644467134e+19,438.5947727625106,4.7100278473787376e+19
3.1000000000000016e-07,6356588104554.01,-3.5427181604036973e+19,444.51100526082814,6.38033890919399e+19
3.2000000000000017e-07,9313835571691.684,-5.432382506802888e+19,450.4523811657468,8.591600958390205e+19
3.300000000000002e-07,13548374079476.207,-8.24940068294015e+19,456.416296844611,1.1501475706017654e+20
3.400000000000002e-07,19567790502156.77,-1.2407851661847111e+20,462.4002962258322,1.5308144064831177e+20
3.500000000000002e-07,28063207018336.566,-1.848766992483621e+20,468.4020607112996,2.0259197123046762e+20
3.600000000000002e-07,39968786409890.95,-2.729313759289714e+20,474.4194000110448,2.666210878816635e+20
3.700000000000002e-07,56538165402470.89,-3.9928963033824716e+20,480.45024379134844,3.489646428621012e+20
3.800000000000002e-07,79441913465628.77,-5.78983420410731e+20,486.4926340431076,4.542816310355838e+20
3.9000000000000024e-07,110890890953916.89,-8.322808195525233e+20,492.5447180902916,5.882579625896513e+20
4.0000000000000025e-07,153791272273257.06,-1.1862674813325347e+21,498.6047421692041,7.577940491689042e+20
4.1000000000000026e-07,211937991178459.7,-1.676826805819159e+21,504.67104551843323,9.712182103902367e+20
4.2000000000000027e-07,290254457697965.3,-2.3510964435862948e+21,510.7420549271145,1.2385277708159154e+21
4.300000000000003e-07,395087580742793.25,-3.27048773315751e+21,516.816279695709,1.5716594743469246e+21
4.400000000000003e-07,534592714013737.94,-4.514844394883032e+21,522.8977866424428,1.98504423983114e+21
4.500000000000003e-07,719140869756207.4,-6.186026612788872e+21,528.9796845208979,2.495346796034646e+21
4.600000000000003e-07,961857946580483.1,-8.41374290399325e+21,535.0605268873516,3.1222778851842007e+21
4.700000000000003e-07,1279259817955580.0,-1.1361748669830917e+22,541.1391338744755,3.8888995297487796e+21
4.800000000000003e-07,1692006284387559.2,-1.5235188492963016e+22,547.2143927041934,4.822031989221368e+21
4.900000000000003e-07,2225790777527922.2,-2.0289073188491963e+22,553.285244577193,5.952692303778786e+21
5.000000000000003e-07,2912382093757587.0,-2.68379190694119e+22,559.3506818303938,7.316544552031559e+21
5.100000000000003e-07,3790833675460209.5,-3.5266514673441303e+22,565.4097461321563,8.954346121691919e+21
5.200000000000003e-07,4908873979050814.0,-4.604168038829187e+22,571.4615267014246,1.0912368520547508e+22
5.300000000000003e-07,6324487635810631.0,-5.972474008615526e+22,577.5051584640694,1.3242762478541114e+22
5.400000000000003e-07,8107690682050046.0,-7.698421800373798e+22,583.5398201816898,1.6003825721423721e+22
5.500000000000003e-07,1.0342493204319162e+16,-9.86079960746794e+22,589.5647325917416,1.926011773905408e+22
5.600000000000004e-07,1.3129028277458256e+16,-1.2551380846611688e+23,595.5791565860264,2.308234938322975e+22
5.700000000000004e-07,1.6585806009538212e+16,-1.5875651405000254e+23,601.582391444134,2.7546957238180092e+22
5.800000000000004e-07,2.08520249930486e+16,-1.995300985030081e+23,607.573773131148,3.2735255715284045e+22
5.900000000000004e-07,2.6089840239969892e+16,-2.49161876314268e+23,613.5526726642028,3.873204791244941e+22
6.000000000000004e-07,3.2486447696532308e+16,-3.090960021963507e+23,619.5184945494678,4.5623576055558135e+22
6.100000000000004e-07,4.025580364206952e+16,-3.808633390358727e+23,625.4706752892444,5.349471301146756e+22
6.200000000000004e-07,4.963975849967791e+16,-4.6603520538979504e+23,631.4086819576992,6.242534896127159e+22
6.300000000000004e-07,6.090835813987815e+16,-5.661598065822965e+23,637.3320108430572,7.248602222988323e+22
6.400000000000004e-07,7.435906424664112e+16,-6.826824491573576e+23,643.2401861536745,8.37329853815778e+22
6.500000000000004e-07,9.031468286524338e+16,-8.168539607572899e+23,649.1327587852139,9.620307934127106e+22
6.600000000000005e-07,1.0911987856610187e+17,-9.696357322369474e+23,655.0093051460642,1.0990898173029325e+23
6.700000000000005e-07,1.3113629399084794e+17,-1.1416136254242959e+24,660.8694260381538,1.2483554925926781e+23
6.800000000000005e-07,1.567364791221136e+17,-1.3329353695005203e+24,666.7127455903649,1.4093801867810333e+23
6.900000000000005e-07,1.8629703071995334e+17,-1.5432856061767323e+24,672.538910241841,1.5814270015015556e+23
7.000000000000005e-07,2.2019150307235347e+17,-1.7719085122168532e+24,678.3475877725997,1.7635046057315054e+23
7.100000000000005e-07,2.587837251634091e+17,-2.0176801081546983e+24,684.138466378969,1.954427901050241e+23
7.200000000000005e-07,3.024221095765456e+17,-2.2792225621885503e+24,689.9112537915,2.1528968965706207e+23
7.300000000000005e-07,3.514353606629549e+17,-2.5550437312221104e+24,695.6656764331278,2.3575817814650622e+23
7.400000000000005e-07,4.061297202530262e+17,-2.84367969818298e+24,701.4014786154743,2.5672005137414653e+23
7.500000000000005e-07,4.667875971107426e+17,-3.143817965643932e+24,707.1184217713108,2.78057702305592e+23
7.600000000000006e-07,5.336671888249897e+17,-3.4543842148267006e+24,712.8162837213029,2.9966728702730896e+23
7.700000000000006e-07,6.070025804691506e+17,-3.774584316206192e+24,718.4948579732758,3.214591401538668e+23
7.800000000000006e-07,6.870038138725169e+17,-4.1039028044481616e+24,724.1539530523393,3.433559178914774e+23
7.900000000000006e-07,7.738565449046839e+17,-4.4420666937765334e+24,729.7933918603023,3.652893237754242e+23
8.000000000000006e-07,8.677210959162472e+17,-4.788987730353014e+24,735.4130110629108,3.871963857634213e+23
8.100000000000006e-07,9.687309104697704e+17,-5.144696702647131e+24,741.012660503514,4.090161306260401e+23
8.200000000000006e-07,1.0769905818122444e+18,-5.509281080783348e+24,746.5922026418555,4.306872304905744e+23
8.300000000000006e-07,1.192573729399341e+18,-5.882833383771683e+24,752.1515120167558,4.52146881638002e+23
8.400000000000006e-07,1.315521034494123e+18,-6.265413612550939e+24,757.6904747315244,4.73330901562165e+23
8.500000000000006e-07,1.445838727232545e+18,-6.65702578509323e+24,763.2089879610077,4.941748427841453e+23
8.600000000000007e-07,1.5834977617719967e+18,-7.057606503900574e+24,768.706959479236,5.1461582897949265e+23
8.700000000000007e-07,1.7284338416857687e+18,-7.4670225674577e+24,774.1843072066988,5.345948028325504e+23
8.800000000000007e-07,1.8805483790719818e+18,-7.885074620562836e+24,779.6409587763225,5.5405890732497907e+23
8.900000000000007e-07,2.039710397004921e+18,-8.311504344187585e+24,785.0768511172847,5.729637761408496e+23
9.000000000000007e-07,2.205759320514568e+18,-8.746003374921609e+24,790.491930055838,5.9127556585038953e+23
9.100000000000007e-07,2.378508547907266e+18,-9.188222787870157e+24,795.8861499323701,6.08972613076345e+23
9.200000000000007e-07,2.557749652316828e+18,-9.637782464284159e+24,801.2594732339581,6.260466415791106e+23
9.300000000000007e-07,2.743257032981645e+18,-1.0094279976697987e+25,806.6118702417273,6.425034785493814e+23
9.400000000000007e-07,2.934792817004247e+18,-1.0557298792518232e+25,811.9433186923476,6.583632687981783e+23
9.500000000000008e-07,3.1321118017938734e+18,-1.1026415150229156e+25,817.2538034530455,6.736601929908709e+23
9.600000000000008e-07,3.3349662533105874e+18,-1.1501206495054229e+25,822.5433162095364,6.884417781108599e+23
9.700000000000007e-07,3.5431103416487537e+18,-1.1981254446338969e+25,827.8118551663185,7.027677443070966e+23
9.800000000000006e-07,3.7563040799516083e+18,-1.2466150558413616e+25,833.0594247587879,7.167086002648354e+23
9.900000000000005e-07,3.9743166238028145e+18,-1.2955499620343813e+25,838.2860353766722,7.303439895754016e+23
1.0000000000000004e-06,4.196928836890047e+18,-1.3448921940325692e+25,843.4917030983008,7.437609036528613e+23
1.0100000000000003e-06,4.4239350654640456e+18,-1.3946054619469077e+25,848.6764494352508,7.570518543123458e+23
1.0200000000000002e-06,4.655144101161342e+18,-1.4446551882413519e+25,853.8403010869345,7.703130935076299e+23
1.03e-06,4.890379345976378e+18,-1.49500845752821e+25,858.9832897047166,7.836429580420704e+23
1.04e-06,5.129478222700439e+18,-1.5456338970649924e+25,864.1054516651623,7.971404036431656e+23
1.05e-06,5.37229089769587e+18,-1.5965015036271719e+25,869.2068278520431,8.109037769209257e+23
1.0599999999999998e-06,5.618678398770268e+18,-1.647582468829088e+25,874.2874634467433,8.250298527970524e+23
1.0699999999999997e-06,5.868510227591053e+18,-1.698848810091449e+25,879.3474077267236,8.396131784315744e+23
1.0799999999999996e-06,6.12166155034191e+18,-1.750273321810645e+25,884.38671387172,8.547456465464e+23
1.0899999999999995e-06,6.378010076794636e+18,-1.8018292368694854e+25,889.4054387773645,8.705163939891217e+23
1.0999999999999994e-06,6.63743270692411e+18,-1.853490024545449e+25,894.4036428759338,8.870119054669503e+23
1.1099999999999993e-06,6.89980202376418e+18,-1.9052292034276289e+25,899.3813899639442,9.043163241355317e+23
1.1199999999999992e-06,7.164982696716104e+18,-1.957020183024603e+25,904.3387470363194,9.225119186662935e+23
1.1299999999999991e-06,7.432827845786748e+18,-2.00883613952568e+25,909.2757841268785,9.41679658662715e+23
1.139999999999999e-06,7.703175403910862e+18,-2.0606499277657456e+25,914.1925741548936,9.618998487041057e+23
1.149999999999999e-06,7.97584450259902e+18,-2.1124340294657377e+25,919.089192777482,9.832527712684435e+23
1.1599999999999988e-06,8.25063189643242e+18,-2.1641605365337326e+25,923.9657182476133,1.0058192897385001e+24
1.1699999999999988e-06,8.527308434897156e+18,-2.215801167446178e+25,928.8222312775063,1.0296813638678992e+24
1.1799999999999987e-06,8.805615585914981e+18,-2.2673273144392713e+25,933.6588149072193,1.0549224306876226e+24
1.1899999999999986e-06,9.085262014093074e+18,-2.31871011939421e+25,938.4755543782286,1.0816276031052814e+24
1.1999999999999985e-06,9.36592021782066e+18,-2.3699205768590954e+25,943.2725370118125,1.1098836356981312e+24
1.2099999999999984e-06,9.647223232293243e+18,-2.420929663567621e+25,948.0498520920545,1.1397786018395e+24
1.2199999999999983e-06,9.928761409575778e+18,-2.471708495040716e+25,952.8075907532967,1.1714012178709826e+24
1.2299999999999982e-06,1.0210079291051696e+19,-2.522228511341754e+25,957.5458458718721,1.2048397382367565e+24
1.239999999999998e-06,1.0490672591183299e+19,-2.5724616957480624e+25,962.2647119619612,1.240180330221364e+24
1.249999999999998e-06,1.0769985313756078e+19,-2.6223808319455894e+25,966.9642850754183,1.2775048183301452e+24
1.2599999999999979e-06,1.1047407022489051e+19,-2.671959807277974e+25,971.6446627054175,1.3168876669805943e+24
1.2699999999999978e-06,1.1322270287754244e+19,-2.721173971474506e+25,976.3059436937843,1.358392047255161e+24
1.2799999999999977e-06,1.159384833235068e+19,-2.770000561956949e+25,980.9482281418703,1.4020648113278437e+24
1.2899999999999976e-06,1.186135290629067e+19,-2.8184192079624686e+25,985.5716173248464,1.4479301809549186e+24
1.2999999999999975e-06,1.2123932440979382e+19,-2.8664125257820557e+25,990.1762136092881,1.4959819511019423e+24
1.3099999999999974e-06,1.2380670578394864e+19,-2.913966815533519e+25,994.7621203739337,1.5461740276261148e+24
1.3199999999999973e-06,1.263058525602162e+19,-2.9610728647415945e+25,999.3294419334985,1.5984091761435786e+24
1.3299999999999972e-06,1.2872628670502654e+19,-3.007726853693703e+25,1003.878283465437,1.6525259823789636e+24
1.3399999999999971e-06,1.3105688656820052e+19,-3.053931339628127e+25,1008.408750939545,1.7082842445180962e+24
1.349999999999997e-06,1.332859230829449e+19,-3.0996962685779425e+25,1012.920951050302,1.7653493716168673e+24
1.359999999999997e-06,1.354011300294702e+19,-3.1450399230201237e+25,1017.41499115185,1.8232768792195273e+24
1.3699999999999968e-06,1.3738982326647433e+19,-3.189989660578515e+25,1021.8909791955224,1.8814987574478506e+24
1.3799999999999967e-06,1.392390856491249e+19,-3.234582239218117e+25,1026.3490236698244,1.9393142810149848e+24
1.3899999999999966e-06,1.4093603282769764e+19,-3.2788634714132815e+25,1030.7892335427823,1.9958885764443365e+24
1.3999999999999965e-06,1.4246816807520856e+19,-3.322886928110166e+25,1035.2117182065729,2.0502626701070022e+24
1.4099999999999965e-06,1.4382382016642634e+19,-3.3667114558627385e+25,1039.6165874243595,2.1013784128765164e+24
1.4199999999999964e-06,1.449926376088635e+19,-3.4103974082718855e+25,1044.003951279248,2.1481202221277677e+24
1.4299999999999963e-06,1.4596608911217228e+19,-3.454001735053995e+25,1048.3739201252909,2.1893728431664602e+24
1.4399999999999962e-06,1.4673790158896497e+19,-3.497572383872978e+25,1052.7266045404715,2.2240906521700724e+24
1.449999999999996e-06,1.47304362201488e+19,-3.5411427637400507e+25,1057.0621152815902,2.2513703603529688e+24
1.459999999999996e-06,1.4766442613118728e+19,-3.5847271758156763e+25,1061.3805632409915,2.2705166833033685e+24
1.4699999999999959e-06,1.4781960572623636e+19,-3.6283180427832346e+25,1065.6820594050664,2.2810907563600943e+24
1.4799999999999958e-06,1.4777365997290308e+19,-3.6718854490706055e+25,1069.9667148144647,2.2829340828231195e+24
1.4899999999999957e-06,1.475321417563891e+19,-3.7153790327114176e+25,1074.2346405259607,2.276165726420646e+24
1.4999999999999956e-06,1.4710188219151522e+19,-3.75873180330288e+25,1078.4859475759094,2.2611556547236184e+24
1.5099999999999955e-06,1.4649049192378487e+19,-3.8018651467565296e+25,1082.7207469452453,2.238480981588848e+24
1.5199999999999954e-06,1.4570594241100323e+19,-3.844694188296941e+25,1086.9391495259601,2.208873454820473e+24
1.5299999999999953e-06,1.447562642483189e+19,-3.887132799967657e+25,1091.141266089014,2.1731659575907819e+24
1.5399999999999952e-06,1.436493732287683e+19,-3.9290977752637435e+25,1095.3272072536286,2.1322437876056908e+24
1.5499999999999951e-06,1.4239301379589853e+19,-3.970511955733626e+25,1099.4970834579128,2.0870039916370127e+24
1.559999999999995e-06,1.409947960497477e+19,-4.01130631120799e+25,1103.6510049307728,2.038323815017571e+24
1.569999999999995e-06,1.3946229610979561e+19,-4.051421113852191e+25,1107.7890816650652,1.9870377682037504e+24
1.5799999999999948e-06,1.3780318879894997e+19,-4.090806406624768e+25,1111.9114233919472,1.9339219815337533e+24
1.5899999999999947e-06,1.3602538450588203e+19,-4.1294219681605e+25,1116.0181395563825,1.8796842778180865e+24
1.5999999999999946e-06,1.3413714725040355e+19,-4.167236943463574e+25,1120.1093392937603,1.8249585268457857e+24
1.6099999999999945e-06,1.3214717735387613e+19,-4.2042292649112014e+25,1124.1851314075911,1.7703021534953616e+24
1.6199999999999944e-06,1.300646489106992e+19,-4.240384945856359e+25,1128.2456243482418,1.716196002499869e+24
1.6299999999999943e-06,1.278991988139353e+19,-4.275697297247915e+25,1132.290926192669,1.6630460317268436e+24
1.6399999999999943e-06,1.2566086983988996e+19,-4.310166098024298e+25,1136.3211446251223,1.6111864800836985e+24
1.6499999999999942e-06,1.2336001478698381e+19,-4.343796740723428e+25,1140.3363869187747,1.5608842416150903e+24
1.659999999999994e-06,1.2100717161241483e+19,-4.376599371213344e+25,1144.336759918257,1.512344200032503e+24
1.669999999999994e-06,1.1861292085595711e+19,-4.408588041958443e+25,1148.3223700230562,1.465715269283532e+24
1.6799999999999939e-06,1.1618773654248153e+19,-4.439779898906708e+25,1152.293323171753,1.4210968726337392e+24
1.6899999999999938e-06,1.1374184053698259e+19,-4.470194421257742e+25,1156.249724827063,1.3785455921949663e+24
1.6999999999999937e-06,1.1128506839234554e+19,-4.499852730571329e+25,1160.1916799616588,1.338081739629097e+24
1.7099999999999936e-06,1.0882675248037233e+19,-4.528776981260995e+25,1164.1192930447432,1.2996956354909263e+24
1.7199999999999935e-06,1.0637562596188852e+19,-4.556989839267004e+25,1168.032668029344,1.2633534332521635e+24
1.7299999999999934e-06,1.0393974916281336e+19,-4.584514050456825e+25,1171.931908340309,1.2290023769222566e+24
1.7399999999999933e-06,1.0152645830739845e+19,-4.611372095722729e+25,1175.8171168629706,1.1965754316639339e+24
1.7499999999999932e-06,9.914233535855798e+18,-4.637585926230278e+25,1179.6883959324641,1.165995270236459e+24
1.759999999999993e-06,9.67931969086287e+18,-4.663176769948504e+25,1183.5458473236683,1.137177632095639e+24
1.769999999999993e-06,9.448409959704453e+18,-4.688164999391892e+25,1187.3895722417492,1.1100340960587145e+24
1.779999999999993e-06,9.221935933472128e+18,-4.712570050235199e+25,1191.2196713132869,1.0844743224418151e+24
1.7899999999999928e-06,9.000258161838672e+18,-4.7364103808836395e+25,1195.0362445779595,1.0604078280545612e+24
1.7999999999999927e-06,8.783670035924733e+18,-4.759703463957142e+25,1198.8393914807702,1.0377453591874804e+24
1.8099999999999926e-06,8.572402287798575e+18,-4.782465801772627e+25,1202.629210864791,1.0163999254734982e+24
1.8199999999999925e-06,8.366627899255206e+18,-4.804712959125737e+25,1206.4058009644111,9.962875527158819e+23
1.8299999999999924e-06,8.166467241758736e+18,-4.826459607870256e+25,1210.1692593990638,9.773278066083144e+23
1.8399999999999923e-06,7.971993298448735e+18,-4.847719578900457e+25,1213.9196831674215,9.594441325747912e+23
1.8499999999999922e-06,7.783236846593063e+18,-4.86850591811902e+25,1217.6571686420366,9.425640503044097e+23
1.8599999999999921e-06,7.600191504025983e+18,-4.8888309438069375e+25,1221.3818115644142,9.266192353097944e+23
