t(s),Adsorbed H on surface 1 (H m-2),solute flux surface 1 (H m-2 s-1),Total T surface 1 (K),0 value at [0] (H m-3)
1e-06,574182822.7308054,-36064408609349.3,300.81095824669126,2164607578773049.2
2.05e-06,1956861891.9122903,-453164020509303.56,302.0864104795944,4805222793301172.0
3.1525e-06,4276856802.473729,-956588575780236.9,303.7573364856415,7360976757398542.0
4.310125e-06,7945786664.99497,-1630113853929613.2,305.7992304962157,1.053516864691154e+16
5.52563125e-06,13683004134.806097,-2604480683420986.5,308.2039295786825,1.4787564611720828e+16
6.8019128125e-06,22742072653.40586,-4099978041055691.5,310.9712672484195,2.0796300497208776e+16
8.142008453125e-06,37349253362.12775,-6507433165803322.0,314.1056624413406,2.9643892432095024e+16
9.54910887578125e-06,61558659674.51287,-1.0545363072498504e+16,317.6144238471011,4.312344098478917e+16
1.1026564319570314e-05,102950528202.72942,-1.7571938687948634e+16,321.5053424083105,6.427594224007053e+16
1.2577892535548829e-05,176097088372.96997,-3.0226229709645336e+16,325.7899308033329,9.838002737105952e+16
1.4206787162326272e-05,309765995109.97046,-5.3758336622343144e+16,330.47982567231446,1.5475629139569658e+17
1.5917126520442588e-05,562208104222.7971,-9.884671960115565e+16,335.58700264263507,2.5013468821731072e+17
1.771298284646472e-05,1054217330648.6145,-1.8765717023451613e+17,341.1237480250332,4.149975991404074e+17
1.9598631988787957e-05,2041842188700.62,-3.670500612682053e+17,347.1024480707499,7.056342422934072e+17
2.1578563588227356e-05,4078709329451.418,-7.376990918384419e+17,353.53538939868184,1.227216944030564e+18
2.3657491767638723e-05,8383032487403.542,-1.518875383117533e+18,360.4345712471476,2.1782164421338301e+18
2.584036635602066e-05,17676020316048.938,-3.193531691778128e+18,367.8115255156328,3.9361784625313024e+18
2.8132384673821694e-05,38111688610227.38,-6.834310884620268e+18,375.6771422646459,7.223421665815077e+18
3.053900390751278e-05,83742157730771.88,-1.4837393741124823e+19,384.0415000375379,1.3427174949462104e+19
3.306595410288842e-05,186865043302151.5,-3.2567904507213595e+19,392.91370165280824,2.521348065480929e+19
3.571925180803284e-05,421943317504186.7,-7.201930609645415e+19,402.3017170405727,4.769160900564884e+19
3.850521439843448e-05,960399885178588.5,-1.5980050449315915e+20,412.21223533245114,9.056602692820612e+19
4.143047511835621e-05,2193448948830451.2,-3.538764595333089e+20,422.6505288163655,1.718865884852164e+20
4.4501998874274025e-05,4994361083593661.0,-7.755248371708633e+20,433.62033158431433,3.2366856207678944e+20
4.772709881798773e-05,1.1221368841206738e+16,-1.6575158253704032e+21,445.12373577490075,5.969718562792563e+20
5.111345375888712e-05,2.448723076364642e+16,-3.376080303205277e+21,457.16110828108026,1.0565378962540242e+21
5.4669126446831475e-05,5.092356540955409e+16,-6.383348510393865e+21,469.7310306880783,1.7528189003121434e+21
5.8402582769173055e-05,9.956265077959811e+16,-1.104390506536911e+22,482.83026504817866,2.692634864712363e+21
6.232271190763171e-05,1.827079285061418e+17,-1.7602798208172138e+22,496.45374789872045,3.8581074560879087e+21
6.64388475030133e-05,3.1708996475112314e+17,-2.635912995463914e+22,510.59461468667524,5.253137701124065e+21
7.076078987816397e-05,5.25656017207719e+17,-3.779108457296404e+22,525.2442564672076,6.913628172848659e+21
7.529882937207217e-05,8.391235381949824e+17,-5.254116461570087e+22,540.3924103767114,8.88649292035788e+21
8.006377084067578e-05,1.2964760751728973e+18,-7.136589926351552e+22,556.0272849209341,1.1211411058103125e+22
8.506695938270958e-05,1.943795357993435e+18,-9.508103059704845e+22,572.1357205436253,1.3919491127290307e+22
9.032030735184505e-05,2.8316960482495155e+18,-1.2449544322342934e+23,588.7033852324387,1.706252385791286e+22
9.583632271943731e-05,4.013019977799276e+18,-1.6036046279325078e+23,605.7150040662996,2.078809514547777e+22
0.00010162813885540918,5.542568570862983e+18,-2.033495600832131e+23,623.1546206136376,2.5473892394191875e+22
0.00010770954579817965,7.478489781155039e+18,-2.5402815122733995e+23,641.0058869698458,3.199079262965396e+22
0.00011409502308808864,9.881625966994618e+18,-3.1272307954290655e+23,659.2523780077136,4.244146198521309e+22
0.00012079977424249307,1.2802642884297796e+19,-3.7903514384022955e+23,677.8779241562037,6.311153843706677e+22
0.00012783976295461773,1.6169399330148755e+19,-4.491424845183877e+23,696.8669557868607,1.2230541865824824e+23
0.00013523175110234862,1.7973592329417368e+19,-5.225303016935989e+23,716.2048511531317,2.3778031710339405e+23
0.00014227173981447327,1.807119447502633e+19,-6.136375456056743e+23,734.0945798799761,2.751216276943106e+23
0.00014966372796220415,1.7942302944939153e+19,-7.152077023389439e+23,752.3291699340751,2.7732612725326018e+23
0.0001574253155173216,1.7766432173598546e+19,-8.212886750599423e+23,770.9021716121712,2.6882411058895567e+23
0.0001655749824501949,1.7553031673959936e+19,-9.312397395107511e+23,789.8079315554677,2.5542090659264022e+23
0.0001741321327297119,1.7289796301160958e+19,-1.0447757596321095e+24,809.0421066074973,2.384706516137988e+23
0.00018311714052320473,1.6950520848954681e+19,-1.16139742549097e+24,828.6019555387941,2.1806971325024716e+23
0.0001925513987063722,1.6481629655661009e+19,-1.2804949525564025e+24,848.4865468790309,1.9364860599170216e+23
0.00020245736979869805,1.5762643350560707e+19,-1.401431227252105e+24,868.6969089500977,1.6410120869388964e+23
0.00021245736979869805,1.4602195371967244e+19,-1.5187678133288714e+24,888.4659808768365,1.3090065364685702e+23
0.00022245736979869805,1.2940730064556026e+19,-1.6302414064953575e+24,907.6472545923991,1.0128296634858488e+23
0.00023245736979869805,1.1160498161010436e+19,-1.7355088824193413e+24,926.2829090245083,8.157831684914479e+22
0.00024245736979869805,9.586721162176283e+18,-1.8355611315868983e+24,944.411736419032,6.969668313895182e+22
0.00025245736979869805,8.291032797383634e+18,-1.9297545965252626e+24,962.0054109510098,6.2253299353284625e+22
0.0002624573697986981,7.240381113930122e+18,-2.0156465408997241e+24,978.9521597949545,5.7213657342436144e+22
0.0002724573697986981,6.379465786943458e+18,-2.0961089046996234e+24,995.4044487829603,5.360006521283999e+22
0.00028245736979869813,5.664277714841973e+18,-2.1718937409111954e+24,1011.4240607453231,5.0873731411286e+22
0.00029245736979869816,5.062795202511154e+18,-2.2433749179369832e+24,1027.0529227797833,4.873261053709556e+22
0.0003024573697986982,4.5516353025004585e+18,-2.3108015941955652e+24,1042.3235038364862,4.699683386469565e+22
0.0003124573697986982,4.1133457948781563e+18,-2.3743727249934397e+24,1057.2624525061913,4.555318883001799e+22
0.00032245736979869823,3.7346160263915884e+18,-2.4342644533958446e+24,1071.8923584875358,4.432711955575607e+22
0.00033245736979869826,3.4051070063994266e+18,-2.490641320251883e+24,1086.2327715439728,4.326771344068277e+22
0.0003424573697986983,3.1166647251738957e+18,-2.543661059062943e+24,1100.300860005698,4.2339167696220865e+22
0.0003524573697986983,2.862774752863959e+18,-2.5934766115870347e+24,1114.11186872718,4.1515690823315035e+22
0.00036245736979869834,2.6381740946339876e+18,-2.6402368760107397e+24,1127.6794541126815,4.077832628087594e+22
0.00037245736979869837,2.438568882230323e+18,-2.684086868514272e+24,1141.0159382797317,4.011290274713634e+22
0.0003824573697986984,2.2604252412532695e+18,-2.725167622847041e+24,1154.1325072009693,3.95086711776626e+22
0.0003924573697986984,2.1008119084062518e+18,-2.76361598816358e+24,1167.039368498596,3.895737492063807e+22
0.00040245736979869844,1.957280157520418e+18,-2.7995644047736024e+24,1179.7458793014227,3.845260098800502e+22
0.00041245736979869847,1.8277710747437768e+18,-2.8331406960226847e+24,1192.2606513565822,3.7989318573079575e+22
0.0004224573697986985,1.7105431768946427e+18,-2.864467892557291e+24,1204.591638520429,3.75635450926872e+22
0.0004324573697986985,1.6041153588444682e+18,-2.8936640935094653e+24,1216.746210371364,3.7172100811817897e+22
0.00044245736979869855,1.5072215262450898e+18,-2.9208423630773034e+24,1228.7312147346506,3.6812426087970913e+22
0.0004524573697986986,1.418774229596078e+18,-2.9461106581695954e+24,1240.5530312357246,3.6482443579530553e+22
0.0004624573697986986,1.3378371175436378e+18,-2.969571782427668e+24,1252.2176175123047,3.618045890910686e+22
0.00047245736979869863,1.2635935411632486e+18,-2.991323359453678e+24,1263.7305493583365,3.590505650821303e+22
0.00048245736979869865,1.1953386725225175e+18,-3.01145782412561e+24,1275.09705580615,3.5655072188282096e+22
0.0004924573697986987,1.1324554497657477e+18,-3.030062428439531e+24,1286.3220499513868,3.5429520053959098e+22
0.0005024573697986987,1.0744032655434368e+18,-3.047219258223809e+24,1297.41015617052,3.522755937084543e+22
0.0005124573697986987,1.0207069503855087e+18,-3.063005262597766e+24,1308.3657342607855,3.504846381083575e+22
0.0005224573697986988,9.709475313479532e+17,-3.077492295859464e+24,1319.1929009382209,3.4891596765461194e+22
0.0005324573697986988,9.247544747155112e+17,-3.0907471734746983e+24,1329.8955490549718,3.4756391544629846e+22
0.0005424573697986988,8.81799147587722e+17,-3.102831744175633e+24,1340.4773648374194,3.464233545703021e+22
0.0005524573697986988,8.417892848739091e+17,-3.113802980336259e+24,1350.941843398608,3.454895700255803e+22
0.0005624573697986989,8.044642894062112e+17,-3.123713088685527e+24,1361.29230273937,3.447581558276291e+22
0.0005724573697986989,7.695912253763318e+17,-3.132609643064587e+24,1371.5318964205185,3.442249326589877e+22
0.0005824573697986989,7.369613910902588e+17,-3.140535740379962e+24,1381.6636250620588,3.4388588240624624e+22
0.0005924573697986989,7.063873776196753e+17,-3.147530180209326e+24,1391.6903468034425,3.437370966549859e+22
0.000602457369798699,6.777005364514495e+17,-3.153627667743412e+24,1401.6147868405487,3.4377473676584705e+22
0.000612457369798699,6.507487925698423e+17,-3.1588590389564386e+24,1411.4395461396887,3.439950035751189e+22
0.000622457369798699,6.253947502206125e+17,-3.1632515061421814e+24,1421.1671094159253,3.4439411508722084e+22
0.000632457369798699,6.01514047420279e+17,-3.1668289212769735e+24,1430.7998524519653,3.4496829078016784e+22
0.0006424573697986991,5.789939224904978e+17,-3.169612054108104e+24,1440.3400488244592,3.457137413478907e+22
0.0006524573697986991,5.577319618314104e+17,-3.171618881437676e+24,1449.789876096503,3.466266628689444e+22
0.0006624573697986991,5.3763500304670957e+17,-3.172864883789222e+24,1459.1514215281998,3.477032345298145e+22
0.0006724573697986992,5.186181715922371e+17,-3.1733633455074746e+24,1468.4266873511563,3.4893961914972184e+22
0.0006824573697986992,5.005903802454475e+17,-3.173232570103916e+24,1477.6292093997483,3.503444175934382e+22
0.0006924573697986992,4.834958150301352e+17,-3.172358837278411e+24,1486.7485644332041,3.5190009910978283e+22
0.0007024573697986992,4.67269616270398e+17,-3.170755827757959e+24,1495.7867997713836,3.5360336114088696e+22
0.0007124573697986993,4.5185242003971974e+17,-3.168433115362654e+24,1504.745688797955,3.5545055127324475e+22
0.0007224573697986993,4.371897946535698e+17,-3.165398735064089e+24,1513.6269078188893,3.5743794501530184e+22
0.0007324573697986993,4.2323176330136224e+17,-3.1616598267741423e+24,1522.432060969022,3.5956179449052335e+22
0.0007424573697986993,4.099323871864567e+17,-3.1572230091059986e+24,1531.1626895501138,3.6181835036893414e+22
0.0007524573697986994,3.972493938171058e+17,-3.15209465810468e+24,1539.8202774051606,3.6420387563648676e+22
0.0007624573697986994,3.851438438271934e+17,-3.1462811342657115e+24,1548.406254803155,3.667146557295584e+22
0.0007724573697986994,3.735798315899582e+17,-3.1397889729377416e+24,1556.9220016053705,3.6934700658562735e+22
0.0007824573697986994,3.6252421571228115e+17,-3.132625044657161e+24,1565.3688500121798,3.7209728125542058e+22
0.0007924573697986995,3.5194637604988275e+17,-3.12479668889572e+24,1573.7480870267768,3.7496187538981467e+22
0.0008024573697986995,3.4181799432254944e+17,-3.116311823503136e+24,1582.0609567061938,3.779372317775312e+22
0.0008124573697986995,3.3211285577608314e+17,-3.107179031657689e+24,1590.3086622401895,3.810198440492527e+22
0.0008224573697986995,3.228066696514207e+17,-3.097407627971917e+24,1598.4923678839148,3.842062596361082e+22
0.0008324573697986996,3.138769064907922e+17,-3.087007705364304e+24,1606.6132007630938,3.874930820582958e+22
0.0008424573697986996,3.0530265054456026e+17,-3.0759901643064985e+24,1614.6722525650564,3.908769726120684e+22
0.0008524573697986996,2.970644657438751e+17,-3.064366726072346e+24,1622.6705811265367,3.943546515200194e+22
0.0008624573697986997,2.891442738793606e+17,-3.0521499316218816e+24,1630.6092119274333,3.979228986070729e+22
0.0008724573697986997,2.815252437787e+17,-3.039353127741313e+24,1638.48913949801,4.015785535614947e+22
0.0008824573697986997,2.7419169040876432e+17,-3.0259904420338537e+24,1646.3113287461404,4.053185158375919e+22
0.0008924573697986997,2.671289829436883e+17,-3.012076748316446e+24,1654.0767162112095,4.091397442546267e+22
0.0009024573697986998,2.6032346094329805e+17,-2.997627623905244e+24,1661.78621124869,4.130392563405491e+22
0.0009124573697986998,2.5376235787442563e+17,-2.9826593002136763e+24,1669.4406971512517,4.170141274683793e+22
0.0009224573697986998,2.4743373128740822e+17,-2.96718860799352e+24,1677.0410322104,4.210614898273944e+22
0.0009324573697986998,2.413263990298623e+17,-2.951232918455896e+24,1684.588050722028,4.2517853126686274e+22
0.0009424573697986999,2.354298809408368e+17,-2.9348100814189477e+24,1692.08256394041,4.293624940479911e+22
0.0009524573697986999,2.297343455240385e+17,-2.9179383615194655e+24,1699.525360983537,4.336106735339668e+22
0.0009624573697986999,2.242305611476792e+17,-2.9006363734227043e+24,1706.9172096923462,4.3792041684393005e+22
0.0009724573697986999,2.1890985136150182e+17,-2.8829230168688334e+24,1714.2588574474457,4.422891214947122e+22
0.0009824573697986999,2.1376405396107376e+17,-2.864817412288133e+24,1721.5510319456478,4.467142340491998e+22
0.0009924573697986999,2.0878548346435773e+17,-2.8463388376207867e+24,1728.79444193852,4.511932487869972e+22
0.0010024573697987,2.0396689669675776e+17,-2.827506666886832e+24,1735.989777935457,4.557237064106555e+22
0.0010124573697987,1.9930146120923837e+17,-2.808340310962845e+24,1743.1377128733034,4.6030319279758125e+22
0.0010224573697987,1.9478272627952864e+17,-2.7888591609409696e+24,1750.2389027545298,4.649293378053874e+22
0.0010324573697987,1.9040459626959562e+17,-2.7690825343682797e+24,1757.2939872552993,4.695998141354722e+22
0.0010424573697987,1.8616130613280144e+17,-2.749029624601573e+24,1764.303590305995,4.743123362596781e+22
0.0010524573697987,1.820473988836725e+17,-2.7287194534418365e+24,1771.2683206447791,4.790646594103932e+22
0.0010624573697987,1.7805770485940682e+17,-2.708170827165872e+24,1778.188772346744,4.838545786361699e+22
0.0010724573697987,1.741873226185559e+17,-2.6874022960124315e+24,1785.0655253286693,4.886799279200325e+22
0.0010824573697987001,1.7043160133530858e+17,-2.666432117148016e+24,1791.8991458320418,4.935385793607809e+22
0.0010924573697987001,1.6678612456127408e+17,-2.645278221090252e+24,1798.6901868846605,4.984284424133909e+22
0.0011024573697987002,1.6324669523773914e+17,-2.623958181539573e+24,1805.4391887423467,5.033474631859356e+22
0.0011124573697987002,1.598093218520847e+17,-2.6024891885394193e+24,1812.146679311401,5.082936237886992e+22
0.0011224573697987002,1.564702056412369e+17,-2.580888024866028e+24,1818.8131745533524,5.132649417323807e+22
0.0011324573697987003,1.5322572875391366e+17,-2.559171045527694e+24,1825.4391788727735,5.182594693709492e+22
0.0011424573697987003,1.500724432914121e+17,-2.5373541602368387e+24,1832.0251854882727,5.2327529338361e+22
0.0011524573697987003,1.4700706115317098e+17,-2.515452818715099e+24,1838.5716767890483,5.283105342940858e+22
0.0011624573697987003,1.4402644462077822e+17,-2.493481998672022e+24,1845.0791246760066,5.333633460200581e+22
0.0011724573697987004,1.4112759761906976e+17,-2.471456196304025e+24,1851.5479908897064,5.384319154511571e+22
0.0011824573697987004,1.3830765759911589e+17,-2.449389419147606e+24,1857.9787273244933,5.435144620492909e+22
0.0011924573697987004,1.355638879921156e+17,-2.427295181128166e+24,1864.3717763306345,5.486092374694997e+22
0.0012024573697987004,1.3289367118818922e+17,-2.4051864996400336e+24,1870.7275710042113,5.5371452519636286e+22
0.0012124573697987005,1.3029450199780509e+17,-2.38307589449932e+24,1877.0465354656176,5.588286401930879e+22
0.0012224573697987005,1.2776398155719637e+17,-2.360975388615531e+24,1883.3290851277986,5.63949928561325e+22
0.0012324573697987005,1.252998116429672e+17,-2.3388965102263002e+24,1889.5756269531885,5.690767672062439e+22
0.0012424573697987005,1.2289978936327246e+17,-2.3168502965554485e+24,1895.786559701939,5.742075635080557e+22
0.0012524573697987006,1.2056180219670696e+17,-2.2948472987487465e+24,1901.9622741698097,5.7934075499416815e+22
0.0012624573697987006,1.1828382335169037e+17,-2.2728975879586154e+24,1908.1031534178335,5.8447480901298215e+22
0.0012724573697987006,1.1606390742205734e+17,-2.251010762448319e+24,1914.2095729930727,5.896082224057369e+22
0.0012824573697987006,1.1390018631627805e+17,-2.2291959555976467e+24,1920.2819011414554,5.947395211760741e+22
0.0012924573697987007,1.1179086543989579e+17,-2.2074618446959597e+24,1926.320499012373,5.998672601548867e+22
0.0013024573697987007,1.097342201121429e+17,-2.18581666042011e+24,1932.3257208565308,6.049900226616004e+22
0.0013124573697987007,1.077285921996976e+17,-2.1642681968963773e+24,1938.2979142163554,6.10106420159279e+22
0.0013224573697987007,1.0577238695176675e+17,-2.1428238222552514e+24,1944.2374201092873,6.152150919030077e+22
0.0013324573697987008,1.0386407002183403e+17,-2.1214904895965108e+24,1950.144573205117,6.203147045827948e+22
0.0013424573697987008,1.0200216466289837e+17,-2.1002747482849578e+24,1956.019701996967,6.2540395195952355e+22
0.0013524573697987008,1.0018524908398922e+17,-2.07918275550503e+24,1961.863128966106,6.30481554493741e+22
0.0013624573697987009,9.841195395668658e+16,-2.0582202880091454e+24,1967.6751707410688,6.3554625896774065e+22
0.0013724573697987009,9.668096006125266e+16,-2.0373927540007113e+24,1973.4561382516988,6.405968381018707e+22
0.001382457369798701,9.499099606301947e+16,-2.0167052050956066e+24,1979.2063368774657,6.456320901636606e+22
0.001392457369798701,9.33408364101278e+16,-1.996162348314719e+24,1984.926066591153,6.506508385718326e+22
0.001402457369798701,9.172929934465744e+16,-1.9757685580619346e+24,1990.615622097472,6.556519314943905e+22
0.001412457369798701,9.015524501963104e+16,-1.955527888048749e+24,1996.2752929672654,6.606342414422011e+22
0.001422457369798701,8.861757371509315e+16,-1.935444083129197e+24,2001.905363767041,6.6559666485778375e+22
0.001432457369798701,8.711522414681546e+16,-1.9155205910148555e+24,2007.5061141846836,6.7053812170119725e+22
0.001442457369798701,8.564717186191155e+16,-1.8957605738403769e+24,2013.0778191505362,6.754575550317744e+22
0.001452457369798701,8.421242771579808e+16,-1.8761669195568794e+24,2018.620748954902,6.8035393058810746e+22
0.0014624573697987011,8.281003642552794e+16,-1.8567422531313952e+24,2024.1351693617892,6.852262363663294e+22
0.0014724573697987011,8.143907519484778e+16,-1.837488947534103e+24,2029.621341718984,6.9007348219723435e+22
0.0014824573697987012,8.009865240666702e+16,-1.8184091344976137e+24,2035.0795230645085,6.9489469932281375e+22
0.0014924573697987012,7.878790637887402e+16,-1.7995047150360064e+24,2040.5099662300158,6.996889399736939e+22
0.0015024573697987012,7.750600417984874e+16,-1.7807773697118685e+24,2045.9129199406905,7.044552769470664e+22
0.0015124573697987012,7.62521405001398e+16,-1.7622285686433355e+24,2051.288628912272,7.091928031867921e+22
0.0015224573697987013,7.502553657712478e+16,-1.7438595812437997e+24,2056.6373339450083,7.139006313656921e+22
0.0015324573697987013,7.382543916964408e+16,-1.7256714856890844e+24,2061.9592720146807,7.1857789347074715e+22
0.0015424573697987013,7.265111957978883e+16,-1.7076651781087057e+24,2067.2546763609807,7.232237403921767e+22
