t(s),Adsorbed H on surface 1 (H m-2),solute flux surface 1 (H m-2 s-1),Total T surface 1 (K),0 value at [0] (H m-3)
1e-10,0.18373648655329267,-1878918729.916979,300.2999464341623,13135211131701.479
2e-10,0.5537310458402255,-3783447852.2999225,300.36025235870045,26372818968172.938
3e-10,1.1119229323544615,-5707635759.082309,300.40869537700905,39693239996278.44
4e-10,1.8600530189412159,-7649450782.480407,300.4518301878403,53087822157144.25
5e-10,2.799770776129276,-9607953633.85614,300.49209713980304,66551993477301.62
6e-10,3.932684058372061,-11582713559.83839,300.5307074414227,80083216184193.4
7e-10,5.26038767243911,-13573591586.922136,300.568366421693,93680145136349.52
7.999999999999999e-10,6.784482003075984,-15580638903.842386,300.60552990399106,107342213359030.22
8.999999999999999e-10,8.5065863195395,-17604042478.015045,300.6425154044457,121069402919466.84
9.999999999999999e-10,10.428348982113047,-19644093347.514343,300.6795572437743,134862107720985.28
1.1e-09,12.551455734570606,-21701167033.388397,300.716836596235,148721046467614.03
1.2e-09,14.877636769032904,-23775710967.720913,300.75449909604356,162647205074746.94
1.3e-09,17.40867298621207,-25868236244.833073,300.7926657520469,176641797382926.9
1.4000000000000001e-09,20.146401725486037,-27979312177.059845,300.8314400291973,190706237795159.66
1.5000000000000002e-09,23.092722150912184,-30109562752.01385,300.870912619199,204842121995410.66
1.6000000000000003e-09,26.24960042447082,-32259664430.783092,300.9111647579524,219051213335647.06
1.7000000000000003e-09,29.61907476260413,-34430344926.79169,300.9522705960443,233335433323048.7
1.8000000000000004e-09,33.20326044883695,-36622382727.16254,300.9942989331529,247696855157761.0
1.9000000000000005e-09,37.004354859536285,-38836607195.59511,301.0373145138368,262137699601390.44
2.0000000000000005e-09,41.02464254906269,-41073899146.124794,301.0813790138778,276660332672515.72
2.1000000000000006e-09,45.266500433070384,-43335191810.92813,301.1265518038719,291267264810837.1
2.2000000000000007e-09,49.732403103495855,-45621472148.63753,301.17289054959235,305961151251716.06
2.3000000000000007e-09,54.42492830516959,-47933782456.08901,301.2204516908249,320744793423367.3
2.400000000000001e-09,59.34676260154781,-50273222258.352684,301.2692908284273,335621141229626.8
2.500000000000001e-09,64.50070725549062,-52640950460.74066,301.31946304118384,350593296118345.1
2.600000000000001e-09,69.88968435010378,-55038187753.233055,301.37102314833305,365664514863171.6
2.700000000000001e-09,75.51674317426983,-57466219263.03193,301.42402592960906,380838214007594.3
2.800000000000001e-09,81.38506689752168,-59926397455.211,301.47852631174004,396117974936470.5
2.900000000000001e-09,87.4979795592867,-62420145284.95745,301.5345795282332,411507549553250.8
3.0000000000000012e-09,93.85895339820425,-64948959607.939316,301.59224125771607,427010866551596.6
3.1000000000000013e-09,100.4716165481613,-67514414858.02282,301.6515677449401,442632038278783.7
3.2000000000000014e-09,107.33976112887707,-70118167004.03685,301.7126159076755,458375368195669.3
3.3000000000000014e-09,114.46735176028655,-72761957799.60904,301.775443432054,474245358944429.5
3.4000000000000015e-09,121.85853453161722,-75447619342.37215,301.840108858404,490246721041023.2
3.5000000000000016e-09,129.51764645792426,-78177078961.0923,301.9066716592222,506384382214623.1
3.6000000000000016e-09,137.44922545894855,-80952364451.56328,301.9751923106112,522663497421221.6
3.7000000000000017e-09,145.65802089750022,-83775609684.48375,302.04573235827,539089459563414.4
3.800000000000002e-09,154.14900471715617,-86649060611.00923,302.11835447892497,555667910953086.4
3.900000000000002e-09,162.92738322191073,-89575081694.30002,302.1931225379344,572404755558458.1
4.000000000000002e-09,171.99860954355114,-92556162798.18552,302.27010164367454,589306172081780.4
4.100000000000002e-09,181.36839684596472,-95594926567.07755,302.3493581992108,606378627918955.1
4.200000000000002e-09,191.0427323193487,-98694136334.51588,302.43095995167806,623628894057574.1
4.300000000000002e-09,201.02789202141204,-101856704601.25998,302.514976039723,641064060975362.0
4.400000000000002e-09,211.33045662716668,-105085702127.67673,302.60147703930875,658691555606847.5
4.500000000000002e-09,221.95732815383437,-108384367689.3684,302.6905350081331,676519159452324.1
4.600000000000002e-09,232.91574773278933,-111756118549.56451,302.78222352887525,694555027909851.9
4.700000000000002e-09,244.21331450635785,-115204561706.83208,302.8766177514535,712807710918267.4
4.8000000000000024e-09,255.85800573375383,-118733505982.16061,302.9737944344483,731286175006963.2
4.9000000000000025e-09,267.85819819750253,-122346975015.55711,303.0738319858246,749999826856649.8
5.0000000000000026e-09,280.22269100945147,-126049221248.9437,303.176810503067,768958538484489.1
5.100000000000003e-09,292.96072992395926,-129844740979.51314,303.28281181282404,788172674176976.1
5.200000000000003e-09,306.0820332751688,-133738290575.80922,303.3919195101473,807653119304829.4
5.300000000000003e-09,319.59681966549164,-137734903957.75702,303.50421899739524,827411311166026.1
5.400000000000003e-09,333.5158375436585,-141839911451.77737,303.61979752286436,847459272016103.6
5.500000000000003e-09,347.85039682302875,-146058960143.0775,303.7387442192008,867809644459037.6
5.600000000000003e-09,362.61240270442283,-150398035859.35706,303.8611501416369,888475729387561.6
5.700000000000003e-09,377.8143918826785,-154863486933.61844,303.98710830609184,909471526678826.6
5.800000000000003e-09,393.4695713325873,-159462049908.73087,304.1167137271693,930811778869996.6
5.900000000000003e-09,409.5918598880069,-164200877362.9547,304.25006345607994,952512018058891.4
6.000000000000003e-09,426.19593284796184,-169087568054.11377,304.3872566185119,974588616297346.8
6.100000000000003e-09,443.2972698656466,-174130199600.60428,304.5283944524693,997058839769754.0
6.200000000000003e-09,460.9122064006767,-179337363940.29996,304.6735803460945,1019940907076538.8
6.3000000000000035e-09,479.0579890419531,-184718205833.8942,304.8229198754872,1043254051972393.4
6.4000000000000035e-09,497.75283503842815,-190282464707.66507,304.97652084253014,1067018590942212.1
6.500000000000004e-09,517.0159964082154,-196040520162.40182,305.1344933127303,1091255996034224.4
6.600000000000004e-09,536.8678290332601,-202003441510.75076,305.29694965307925,1115988973410159.1
6.700000000000004e-09,557.3298671876189,-208183041744.9788,305.4640045699387,1141241548116845.5
6.800000000000004e-09,578.4249039927608,-214591936381.64255,305.63577514695,1167039155632916.8
6.900000000000004e-09,600.1770783437731,-221243607679.59174,305.81238088297,1193408740798792.0
7.000000000000004e-09,622.611968906533,-228152474783.71533,305.9939437300309,1220378864798464.0
7.100000000000004e-09,645.7566958485266,-235333970409.7814,306.1805881313206,1247979820928480.5
7.200000000000004e-09,669.6400310358417,-242804624756.48212,306.37244105918035,1276243759963658.2
7.300000000000004e-09,694.2925175068599,-250582157410.45724,306.56963205311393,1305204826011340.5
7.400000000000004e-09,719.7465991203563,-258685578099.8219,306.7722932578013,1334899303837387.8
7.500000000000004e-09,746.0367613732691,-267135297253.01703,306.9805594611105,1365365778748638.2
7.600000000000004e-09,773.1996844926638,-275953247434.1001,307.1945681320977,1396645310229533.2
7.700000000000003e-09,801.2744100289362,-285163016854.8914,307.4144594589875,1428781620656321.8
7.800000000000002e-09,830.3025223148112,-294789996310.6387,307.64037638712205,1461821300552334.2
7.900000000000001e-09,860.3283463092149,-304861541051.562,307.8724646568686,1495814032003969.2
8e-09,891.3991635189111,-315407149290.5771,308.1108728414731,1530812832031262.8
8.1e-09,923.5654478865208,-326458659260.8182,308.355752384848,1566874317901489.8
8.199999999999999e-09,956.8811237541984,-338050466979.0913,308.6072576392801,1604058996591678.5
8.299999999999998e-09,991.4038482612699,-350219767147.2932,308.86554590304485,1642431580849128.2
8.399999999999997e-09,1027.1953208155135,-363006819938.1567,309.130777457913,1682061334571270.0
8.499999999999997e-09,1064.3216225960473,-376455246770.1427,309.4031156065333,1723022450531218.8
8.599999999999996e-09,1102.8535894062436,-390612358585.5783,309.68272670967633,1765394463817359.0
8.699999999999995e-09,1142.8672216037724,-405529520614.0131,309.9697802233229,1809262704739104.8
8.799999999999994e-09,1184.44413529879,-421262558138.1666,310.2644487355794,1854718795382023.5
8.899999999999994e-09,1227.6720595385316,-437872208393.40405,310.5669080034037,1901861194480074.5
8.999999999999993e-09,1272.6453847964913,-455424624435.41516,310.8773369891226,1950795795817870.8
9.099999999999992e-09,1319.465768767844,-473991937619.19147,311.1959178967234,2001636585989737.2
9.199999999999991e-09,1368.2428062523652,-493652886261.94196,311.5228362078989,2054506368034179.2
9.29999999999999e-09,1419.0947707964522,-514493519132.92523,311.85828071782845,2109537558242765.5
9.39999999999999e-09,1472.1494367839723,-536607983646.98773,312.20244357067384,2166873064323461.5
9.499999999999989e-09,1527.5449918313311,-560099410062.7859,312.55552029476956,2226667254094021.2
9.599999999999988e-09,1585.4310506784902,-585080904632.5111,312.91770983748745,2289087025006982.0
9.699999999999988e-09,1645.9697833015907,-611676666554.5195,313.28921459975396,2354312986082380.0
9.799999999999987e-09,1709.3371717358848,-640023245786.9098,313.67024047019885,2422540765268362.0
9.899999999999986e-09,1775.7244121266895,-670270961340.0739,314.0609968589124,2493982456887482.0
9.999999999999985e-09,1845.3394808642809,-702585502640.0942,314.4616967307902,2568868225685204.5
1.0099999999999985e-08,1918.4088863567267,-737149740013.7185,314.87255663844144,2647448086108825.5
1.0199999999999984e-08,1995.1796311121748,-774165774374.2318,315.29379675463827,2729993877846194.0
1.0299999999999983e-08,2075.9214124091486,-813857260885.6732,315.72564090428307,2816801461386578.0
1.0399999999999982e-08,2160.929094012492,-856472046869.1207,316.1683165958687,2908193160479330.0
1.0499999999999982e-08,2250.5254862411107,-902285170630.2361,316.6220550524092,3004520481916032.5
1.059999999999998e-08,2345.06447732658,-951602275398.9684,317.0870912418154,3106167147113400.0
1.069999999999998e-08,2444.934565555026,-1004763501379.934,317.56366390669103,3213552474602681.5
1.079999999999998e-08,2550.5628493195154,-1062147929252.981,318.05201559352474,3327135157823614.5
1.0899999999999978e-08,2662.419541117509,-1124178660621.4026,318.5523926812527,3447417488678047.5
1.0999999999999978e-08,2781.0230819345693,-1191328635219.1335,319.0650454091657,3574950084237154.0
1.1099999999999977e-08,2906.9459446311625,-1264127301563.9626,319.59022790413593,3710337181952575.0
1.1199999999999976e-08,3040.821229215253,-1343168277667.034,320.1281982071371,3854242577853609.0
1.1299999999999975e-08,3183.35016962232,-1429118161963.398,320.6792182990315,4007396292703294.5
1.1399999999999975e-08,3335.3106912937264,-1522726682514.8452,321.2435541255985,4170602063149470.0
1.1499999999999974e-08,3497.5671819906615,-1624838405597.9868,321.82147562177664,4344745768791482.0
1.1599999999999973e-08,3671.081665558753,-1736406264043.5525,322.41325673509414,4530804922079266.0
1.1699999999999972e-08,3856.9266005526306,-1858507212362.5767,323.01917544826006,4729859366407569.0
1.1799999999999972e-08,4056.299563682487,-1992360371262.2756,323.63951380088923,4943103349059432.0
1.1899999999999971e-08,4270.540123088858,-2139348090409.3787,324.2745579103341,5171859160251991.0
1.199999999999997e-08,4501.1492598513705,-2301040437410.8755,324.92459799159644,5417592557984629.0
1.209999999999997e-08,4749.81175953652,-2479223715581.558,325.589928376291,5681930231317820.0
1.2199999999999969e-08,5018.422070974074,-2675933726349.8857,326.2708475306347,5966679592862208.0
1.2299999999999968e-08,5309.114219221905,-2893494628002.831,326.96765807243276,6273851235501897.0
1.2399999999999967e-08,5624.296466741269,-3134564405617.8784,327.6806667870359,6605684439734586.0
1.2499999999999966e-08,5966.691544682364,-3402188163244.233,328.4101846422393,6964676177684051.0
1.2599999999999966e-08,6339.3834291517105,-3699860685718.926,329.1565268020976,7353614129237909.0
1.2699999999999965e-08,6745.871820599823,-4031600002546.8345,329.9200126396269,7775614306545660.0
1.2799999999999964e-08,7190.135704362699,-4402034030578.022,330.7009657483681,8234163977232899.0
1.2899999999999963e-08,7676.707634634746,-4816502788701.942,331.499713952782,8733170686451290.0
1.2999999999999963e-08,8210.760702170555,-5281179182305.746,332.31658931745113,9277018306007048.0
1.3099999999999962e-08,8798.21052933302,-5803211967304.608,333.15192815505947,9870631188500484.0
1.3199999999999961e-08,9445.83509883541,-6390895247132.647,334.00607103312313,1.0519547679454116e+16
1.329999999999996e-08,10161.415781962649,-7053869760741.268,334.87936277944647,1.123000444528532e+16
1.339999999999996e-08,10953.90360943758,-7803362321853.632,335.77215248627397,1.2009033314990008e+16
1.3499999999999959e-08,11833.615649526457,-8652471114523.752,336.68479351311447,1.286457261481907e+16
1.3599999999999958e-08,12812.467355588464,-9616506193168.525,337.61764348820833,1.3805595305481066e+16
1.3699999999999957e-08,13904.247958677573,-10713396545702.236,338.571064308613,1.4842256619303936e+16
1.3799999999999956e-08,15124.947458891671,-11964177541786.664,339.5454221388802,1.5986064350788964e+16
1.3899999999999956e-08,16493.145572359703,-13393575610779.592,340.541087408299,1.7250075490502654e+16
1.3999999999999955e-08,18030.475193842878,-15030710707808.38,341.5584348066788,1.864912352402081e+16
1.4099999999999954e-08,19762.17563056813,-16909941695922.764,342.59784327864713,2.0200081462191304e+16
1.4199999999999953e-08,21717.754166091545,-19071885402347.34,343.6596960164379,2.1922166547168604e+16
1.4299999999999953e-08,23931.778566556837,-21564647053041.004,344.7443804511436,2.383729361530923e+16
1.4399999999999952e-08,26444.82812337105,-24445308371300.934,345.85228824240903,2.5970485322662188e+16
1.4499999999999951e-08,29304.636957398783,-27781730242188.445,346.9838152665406,2.835034888666163e+16
1.459999999999995e-08,32567.470866297463,-31654739994817.28,348.1393616030095,3.1009630710729856e+16
1.469999999999995e-08,36299.788323219276,-36160789665281.88,349.3193315193232,3.3985862286928804e+16
1.4799999999999949e-08,40580.24776263228,-41415191859940.59,350.52413345424475,3.7322113175362184e+16
1.4899999999999948e-08,45502.13755670782,-47556065028724.73,351.7541799993351,4.106786970914755e+16
1.499999999999995e-08,51176.32276929947,-54749151321843.48,353.00988787879845,4.52800614557831e+16
1.509999999999995e-08,57734.824721699006,-63193709302214.984,354.2916779276069,5.002426148162804e+16
1.519999999999995e-08,65335.17667976219,-73129732587418.5,355.5999750678862,5.537609123798891e+16
1.5299999999999952e-08,74165.73291429355,-84846806479722.98,356.9352082835392,6.1422866560892104e+16
1.5399999999999953e-08,84452.15068073221,-98694990942197.31,358.29781059308846,6.826552802669986e+16
1.5499999999999954e-08,96465.31743333294,-115098213849277.2,359.68821902071824,7.602090694142333e+16
1.5599999999999954e-08,110531.06151124873,-134570778284272.48,361.1068745654969,8.482438781337872e+16
1.5699999999999955e-08,127042.06699064109,-157737738105945.4,362.5542221687616,9.48330395668154e+16
1.5799999999999956e-08,146472.5166619788,-185360085081814.53,364.03071067964675,1.0622930135795694e+17
1.5899999999999957e-08,169396.11657190323,-218365928754824.16,365.5367928187401,1.1922532508565782e+17
1.5999999999999958e-08,196508.3181111571,-257889149771738.34,367.0729251398491,1.3406809606350568e+17
1.609999999999996e-08,228653.75791196642,-305317385033381.3,368.6395679898622,1.5104547645862464e+17
1.619999999999996e-08,266860.19284833653,-362351679535865.3,370.2371854666897,1.7049334374824995e+17
1.629999999999996e-08,312380.53118762164,-431080741611655.06,371.86624537526933,1.9280402949040874e+17
1.639999999999996e-08,366744.9691811344,-514073499102023.44,373.52721918162325,2.1843630322004013e+17
1.6499999999999962e-08,431825.7576897861,-614494616633929.1,375.2205819649531,2.4792719355086528e+17
1.6599999999999963e-08,509917.7745588607,-736248853189599.6,376.9468123677606,2.8190599512728378e+17
1.6699999999999964e-08,603838.9019864048,-884161684061496.6,378.70639254398196,3.211108777787514e+17
1.6799999999999965e-08,717055.250717864,-1064205570698402.6,380.4998081051261,3.664085953004343e+17
1.6899999999999966e-08,853837.5940279996,-1283783748891087.2,382.3275480644049,4.188178883809906e+17
1.6999999999999967e-08,1019457.0500178983,-1552086564413374.2,384.1901047788477,4.795372925156106e+17
1.7099999999999968e-08,1220430.1776589474,-1880539399654630.8,386.08797388939126,5.499782011122784e+17
1.719999999999997e-08,1464826.3540328224,-2283366339882495.5,388.0216542589358,6.318042010182893e+17
1.729999999999997e-08,1762653.7355317133,-2778300223540705.5,389.9916479083629,7.269778978749688e+17
1.739999999999997e-08,2126344.476645898,-3387477990526144.0,391.99845995050686,8.378166886604942e+17
1.749999999999997e-08,2571365.445071164,-4138570775042856.0,394.04259852207565,9.670592264258271e+17
1.7599999999999972e-08,3116987.762229372,-5066211610469977.0,396.1245747135162,1.1179446670596389e+18
1.7699999999999973e-08,3787257.537595503,-6213800721171725.0,398.24490249682157,1.2943072013053793e+18
1.7799999999999974e-08,4612221.695912786,-7635790190244460.0,400.40409865127555,1.5006888708120282e+18
1.7899999999999975e-08,5629477.513121626,-9400577615516086.0,402.6026826871352,1.7424742610243517e+18
1.7999999999999976e-08,6886133.269395594,-1.1594173862252962e+16,404.8411767672486,2.0260513757015393e+18
1.8099999999999977e-08,8441291.435891507,-1.4324855313969908e+16,407.1201056266081,2.3590038511015895e+18
1.8199999999999978e-08,10369196.495972175,-1.772906882355416e+16,409.4399964898416,2.750340690233552e+18
1.829999999999998e-08,12763228.7326985,-2.1978931334878724e+16,411.80137898664094,3.2107709223209364e+18
1.839999999999998e-08,15740975.489402797,-2.7291760292401496e+16,414.20478506513234,3.753032059431798e+18
1.849999999999998e-08,19450675.600184966,-3.394219110790733e+16,416.6507489031915,4.3922829784537185e+18
1.859999999999998e-08,24079414.82629606,-4.227759127687863e+16,419.13980681770806,5.146573958638947e+18
1.8699999999999982e-08,29863555.261496298,-5.273767635902745e+16,421.67249717180476,6.037409119989699e+18
1.8799999999999983e-08,37102016.23731451,-6.5879482573143896e+16,424.24936028001804,7.090419515710634e+18
1.8899999999999984e-08,46173196.52883628,-8.240916897543456e+16,426.8709383114467,8.336168727810574e+18
1.8999999999999985e-08,57556548.206390135,-1.0322252785955122e+17,429.5377751908776,9.811117111474493e+18
1.9099999999999986e-08,71860094.82575624,-1.2945659895946478e+17,432.2504164978964,1.1558775964833985e+19
1.9199999999999987e-08,89855548.0994265,-1.6255544146862112e+17,435.009409363995,1.3631089024751548e+19
1.9299999999999988e-08,112523139.85868157,-2.0435395609272435e+17,437.8153023676852,1.6090085993792004e+19
1.939999999999999e-08,141108878.25523594,-2.5718471577901683e+17,440.66864542762943,1.900986151040511e+19
1.949999999999999e-08,177197694.83989757,-3.24014119658872e+17,443.56998969380544,2.2478943345205047e+19
1.959999999999999e-08,222806918.43276018,-4.086159074307829e+17,446.51988743671325,2.6603125949586563e+19
1.969999999999999e-08,280505751.27376086,-5.1579225840223597e+17,449.51889193464217,3.150886016182978e+19
1.9799999999999992e-08,353568007.6238599,-6.516554734791699e+17,452.5675573590133,3.734730731692453e+19
1.9899999999999993e-08,446167400.0250515,-8.239867539215302e+17,455.66643865781117,4.42991867100156e+19
1.9999999999999994e-08,563627244.9897103,-1.0426930415023084e+18,458.81609143712456,5.258056991557873e+19
2.0099999999999995e-08,712739761.9713254,-1.3203885137976407e+18,462.0170718408126,6.244980454992755e+19
2.0199999999999996e-08,902174352.5896978,-1.6731344398121644e+18,465.2699364283154,7.421578448197781e+19
