t(s),Adsorbed H on surface 1 (H m-2),solute flux surface 1 (H m-2 s-1),Total T surface 1 (K),0 value at [0] (H m-3)
1e-10,0.18199263049728928,-1862176800.6145341,300.24625419808103,13044754083957.713
2e-10,0.5472845208981408,-3737597044.4527483,300.2778425128482,26142741440907.496
3e-10,1.0968755553208553,-5623123712.2783375,300.3032168256266,39283650510039.125
4e-10,1.8316598330697846,-7517673241.846975,300.32581062037326,52462899082622.75
5e-10,2.7524815448818414,-9420732961.20002,300.34690216279967,65678039105571.51
6e-10,3.860160878328708,-11332054973.594149,300.36712588655485,78927684188083.22
7e-10,5.155508793412144,-13251542400.948696,300.386851242911,92211068308752.39
7.999999999999999e-10,6.639336573758539,-15179195964.130167,300.4063169905946,105527828319710.16
8.999999999999999e-10,8.312462574443742,-17115085309.504997,300.4256894419594,118877883542405.44
9.999999999999999e-10,10.17571732773047,-19059332208.33643,300.44509133080595,132261363499149.17
1.1e-09,12.22994762664852,-21012100095.301193,300.4646175521552,145678561903120.28
1.2e-09,14.476019944536674,-22973587269.32491,300.4843443845641,159129906046063.72
1.3e-09,16.91482341052422,-24944022344.137096,300.50433520727296,172615935743245.44
1.4000000000000001e-09,19.54727248297111,-26923661151.250587,300.52464420950054,186137288490851.62
1.5000000000000002e-09,22.374309416467206,-28912784620.583923,300.54531888931365,199694688820211.53
1.6000000000000003e-09,25.39690658911865,-30911697343.37691,300.56640179129937,213288940582099.28
1.7000000000000003e-09,28.616068738229817,-32920726626.908836,300.58793174821517,226920921336489.25
1.8000000000000004e-09,32.03283514011416,-34940221914.39664,300.609944789452,240591578294693.25
1.9000000000000005e-09,35.64828176133298,-36970554483.75848,300.63247481974605,254301925433364.12
2.0000000000000005e-09,39.46352340279098,-39012117365.1533,300.65555413579784,268053041512786.0
2.1000000000000006e-09,43.47971585396217,-41065325434.75297,300.67921382621125,281846068807731.75
2.2000000000000007e-09,47.69805807153964,-43130615654.22018,300.70348408593014,295682212411317.8
2.3000000000000007e-09,52.11979439464555,-45208447433.78011,300.72839446701573,309562740008886.1
2.400000000000001e-09,56.74621680716916,-47299303102.8034,300.75397408134904,323488982045118.8
2.500000000000001e-09,61.578667256661646,-49403688476.193756,300.78025176655694,337462332226646.94
2.600000000000001e-09,66.61854003839574,-51522133508.14341,300.8072562234788,351484248316499.9
2.700000000000001e-09,71.86728425261931,-53655193027.27961,300.83501613137605,365556253187332.7
2.800000000000001e-09,77.32640634263892,-55803447549.12837,300.8635602455687,379679936108433.0
2.900000000000001e-09,82.99747272112266,-57967504163.31526,300.89291748107644,393856954247754.9
3.0000000000000012e-09,88.88211249188289,-60147997494.12107,300.92311698502397,408089034375122.94
3.1000000000000013e-09,94.98202027436615,-62345590733.99516,300.9541881999619,422377974756654.94
3.2000000000000014e-09,101.29895913812648,-64560976750.44765,300.9861609197934,436725647233607.4
3.3000000000000014e-09,107.83476365467591,-66794879267.454346,301.01906533964694,451133999481446.1
3.4000000000000015e-09,114.59134307428505,-69048054123.12466,301.05293210076445,465605057447113.9
3.5000000000000016e-09,121.57068463554162,-71321290605.95058,301.0877923312667,480140927964316.44
3.6000000000000016e-09,128.7748570157608,-73615412872.46931,301.1236776834926,494743801548255.0
3.7000000000000017e-09,136.20601393067582,-75931281449.66212,301.16062036847984,509415955372651.06
3.800000000000002e-09,143.86639789221925,-78269794825.89204,301.19865318805347,524159756433193.6
3.900000000000002e-09,151.758344133634,-80631891134.64552,301.2378095649054,538977664902722.6
4.000000000000002e-09,159.88428471162774,-83018549935.81104,301.2781235709824,553872237684567.8
4.100000000000002e-09,168.2467527958067,-85430794099.70581,301.31962995444746,568846132171531.0
4.200000000000002e-09,176.8483871561973,-87869691799.55276,301.36236416543505,583902110219029.4
4.300000000000002e-09,185.69193686028433,-90336358618.60794,301.40636238078616,599043042341943.9
4.400000000000002e-09,194.7802661916718,-92831959778.6849,301.45166152791904,614271912145742.1
4.500000000000002e-09,204.116359803202,-95357712497.36574,301.4982993079671,629591821003485.0
4.600000000000002e-09,213.7033281181607,-97914888481.80046,301.54631421829754,645005992991397.0
4.700000000000002e-09,223.54441299405042,-100504816567.60999,301.5957455745037,660517780096781.8
4.8000000000000024e-09,233.64299366433505,-103128885512.09758,301.6466335319543,676130667713217.5
4.9000000000000025e-09,244.00259297455432,-105788546951.68533,301.6990191069668,691848280439172.9
5.0000000000000026e-09,254.62688393027912,-108485318534.27478,301.75294419766607,707674388197454.0
5.100000000000003e-09,265.5196965755344,-111220787238.05968,301.80845160457744,723612912694241.2
5.200000000000003e-09,276.68502522156405,-113996612889.22743,301.8655850509987,739667934237900.4
5.300000000000003e-09,288.1270360471556,-116814531891.94182,301.9243892031872,755843698939274.9
5.400000000000003e-09,299.85007509319416,-119676361185.06664,301.9849096903957,772144626316792.2
5.500000000000003e-09,311.85867667567646,-122584002441.20654,302.0471931247815,788575317331450.0
5.600000000000003e-09,324.15757224310755,-125539446524.88754,302.11128712121524,805140562878613.4
5.700000000000003e-09,336.75169970602184,-128544778228.01894,302.17724031700686,821845352765552.0
5.800000000000003e-09,349.6462132683393,-131602181302.23178,302.2451023915664,838694885205791.4
5.900000000000003e-09,362.8464937923945,-134713943809.25636,302.3149240860136,855694576863662.2
6.000000000000003e-09,376.35815973177245,-137882463812.20883,302.38675722274843,872850073484924.4
6.100000000000003e-09,390.18707866857295,-141110255432.50836,302.46065472499146,890167261152014.8
6.200000000000003e-09,404.3393794944115,-144399955299.17297,302.5366706363026,907652278205371.5
6.3000000000000035e-09,418.82146527737876,-147754329419.43738,302.6148601400844,925311527875402.4
6.4000000000000035e-09,433.6400268603307,-151176280502.02512,302.69527957907405,943151691673044.5
6.500000000000004e-09,448.80205723930067,-154668855767.04364,302.77798647482837,961179743590509.1
6.600000000000004e-09,464.31486677452926,-158235255279.2952,302.8630395472032,979402965167754.6
6.700000000000004e-09,480.18609929062757,-161878840844.94077,302.9504987338294,997828961484505.5
6.800000000000004e-09,496.4237491267537,-165603145514.83173,303.0404252095843,1016465678142259.6
6.900000000000004e-09,513.0361792024252,-169411883741.5768,303.1328814060596,1035321419305753.5
7.000000000000004e-09,530.0321401697395,-173308962241.45325,303.22793103102197,1054404866878785.1
7.100000000000004e-09,547.4207907283842,-177298491616.7761,303.3256390878671,1073725100895212.1
7.200000000000004e-09,565.2117191859137,-181384798799.1802,303.4260718950607,1093291621212346.2
7.300000000000004e-09,583.4149663524165,-185572440379.68094,303.52929710556623,1113114370600935.2
7.400000000000004e-09,602.0410498659326,-189866216897.2268,303.63538372625226,1133203759333493.8
7.500000000000004e-09,621.1009900528775,-194271188163.94318,303.74440213727684,1153570691380982.0
7.600000000000004e-09,640.606337436342,-198792689712.3588,303.85642411144215,1174226592336790.0
7.700000000000003e-09,660.5692020145436,-203436350457.71826,303.9715228335142,1195183439196744.8
7.800000000000002e-09,681.0022844419844,-208208111677.08313,304.08977291950134,1216453792134489.5
7.900000000000001e-09,701.9189092571081,-213114247416.3806,304.21125043588404,1238050828423166.5
8e-09,723.333060312549,-218161386447.01205,304.33603291878995,1259988378666980.2
8.1e-09,745.2594185775338,-223356535905.11707,304.4641993931055,1282280965520002.0
8.199999999999999e-09,767.7134024967517,-228707106759.30966,304.5958303915166,1304943845084642.2
8.299999999999998e-09,790.7112111061987,-234220941266.72623,304.7310079734697,1327993051198664.0
8.399999999999997e-09,814.2698701242595,-239906342592.7383,304.86981574404484,1351445442837598.5
8.499999999999997e-09,838.4072812558003,-245772106786.84482,305.01233887273156,1375318754879094.5
8.599999999999996e-09,863.1422749684884,-251827557326.24698,305.15866411209686,1399631652497260.2
8.699999999999995e-09,888.4946670241388,-258082582459.6908,305.30887981633794,1424403789478635.0
8.799999999999994e-09,914.4853190738532,-264547675607.4692,305.46307595970694,1449655870777254.0
8.899999999999994e-09,941.1362036543204,-271233979099.42145,305.6213441547989,1475409719654593.8
8.999999999999993e-09,968.4704739541879,-278153331561.53186,305.78377767069185,1501688349781250.2
9.099999999999992e-09,996.5125387542142,-285318319293.7191,305.95047145092695,1528516042711305.5
9.199999999999991e-09,1025.288142983349,-292742332017.02026,306.1215221313194,1555918431177788.8
9.29999999999999e-09,1054.8244543753656,-300439623407.9754,306.2970280575859,1583922588698804.2
9.39999999999999e-09,1085.1501567576674,-308425376882.2352,306.4770893027791,1612557126029158.8
9.499999999999989e-09,1116.2955505559114,-316715777138.6208,306.6618076845153,1641852295042129.2
9.599999999999988e-09,1148.292661155741,-325328088029.9068,306.8512867819833,1671840100680847.0
9.699999999999988e-09,1181.1753558268572,-334280737388.0157,307.0456319527225,1702554421679192.8
9.799999999999987e-09,1214.9794699856168,-343593409500.0276,307.24495034915617,1734031140818693.0
9.899999999999986e-09,1249.7429436511816,-353287146008.3051,307.4493509348671,1766308285561377.0
9.999999999999985e-09,1285.5059690379069,-363384456094.1893,307.6589445006023,1799426179979645.8
1.0099999999999985e-08,1322.3111503242137,-373909436901.2939,307.8738436799934,1833427608993771.2
1.0199999999999984e-08,1360.2036767468558,-384887905262.8207,308.0941629649779,1868357996026624.8
1.0299999999999983e-08,1399.2315102906578,-396347541919.07794,308.32001872090785,1904265595294717.8
1.0399999999999982e-08,1439.4455893790048,-408318049548.23553,308.55152920133173,1941201700075768.5
1.0499999999999982e-08,1480.9000501213877,-420831326087.41095,308.7888145624346,1979220868427173.0
1.059999999999998e-08,1523.652466843149,-433921654994.6109,309.03199687712146,2018381167978394.8
1.069999999999998e-08,1567.7641138115332,-447625914297.7043,309.28120014873,2058744441585124.5
1.079999999999998e-08,1613.3002502837805,-461983806497.2445,309.5365503243566,2100376595815927.0
1.0899999999999978e-08,1660.3304312403122,-477038111639.28644,309.7981753077803,2143347914445153.2
1.0999999999999978e-08,1708.9288464323597,-492834966156.1696,310.0662049719703,2187733399351474.5
1.1099999999999977e-08,1759.1746906725675,-509424170392.1931,310.3407711711597,2233613141472207.8
1.1199999999999976e-08,1811.1525686335003,-526859528092.43,310.6220077524712,2281072724742629.5
1.1299999999999975e-08,1864.9529377976428,-545199221542.5828,310.91005056707786,2330203666260103.0
1.1399999999999975e-08,1920.672593629102,-564506226512.7479,311.2050374808833,2381103896258903.5
1.1499999999999974e-08,1978.415201518394,-584848771686.2572,311.5071083847046,2433878281867414.0
1.1599999999999973e-08,2038.291880594907,-606300847855.4513,311.81640520394217,2488639199049714.5
1.1699999999999972e-08,2100.421845115541,-628942772850.1893,312.1330719077194,2545507157614040.0
1.1799999999999972e-08,2164.933109832512,-652861818944.1322,312.45725451747626,2604611484707245.0
1.1899999999999971e-08,2231.9632665297804,-678152910372.7615,312.78910111499926,2666091072814382.5
1.199999999999997e-08,2301.6603398091243,-704919399612.0902,313.1287618498717,2730095198953640.0
1.209999999999997e-08,2374.1837312186203,-733273932227.1,313.476388946327,2796784422508170.0
1.2199999999999969e-08,2449.7052619656392,-763339411426.2994,313.83213670948817,2866331569977982.5
1.2299999999999968e-08,2528.4103257634893,-795250074979.0883,314.1961615309761,2938922815878516.5
1.2399999999999967e-08,2610.49916484879,-829152698895.6707,314.5686218938705,3014758870070903.5
1.2499999999999966e-08,2696.1882839023506,-865207944269.7853,314.949678377005,3094056282997022.0
1.2599999999999966e-08,2785.712018540907,-903591865983.0782,315.33949365858035,3177048881627190.0
1.2699999999999965e-08,2879.3242772565136,-944497604613.5217,315.738232519078,3263989350428754.0
1.2799999999999964e-08,2977.3004782065514,-988137285934.0083,316.1460618434566,3355150973351835.0
1.2899999999999963e-08,3079.939705148751,-1034744155895.5076,316.56315062261524,3450829554728727.5
1.2999999999999963e-08,3187.5671101287444,-1084574983036.72,316.9896699541044,3551345539124265.0
1.3099999999999962e-08,3300.536594328249,-1137912764937.6548,317.4257930420692,3657046352587914.5
1.3199999999999961e-08,3419.233802846497,-1195069780740.3704,317.87169519640656,3768308990481193.5
1.329999999999996e-08,3544.079474205318,-1256391038017.6594,318.3275538311199,3885542880128022.5
1.339999999999996e-08,3675.5331911435196,-1322258169521.422,318.7935484618531,4009193050008559.0
1.3499999999999959e-08,3814.097585920756,-1393093843753.9343,319.26986070258806,4139743641143579.5
1.3599999999999958e-08,3960.3230610274286,-1469366763072.9736,319.7566742614878,4277721800758837.5
1.3699999999999957e-08,4114.813095062223,-1551597334397.676,320.2541749358689,4423702003348490.0
1.3799999999999956e-08,4278.230213788394,-1640364110797.6206,320.76255060628574,4578310849955229.0
1.3899999999999956e-08,4451.302718243518,-1736311117645.3623,321.28199122971023,4742232402945822.0
1.3999999999999955e-08,4634.832275524978,-1840156194971.5178,321.81268883179064,4916214120891431.0
1.4099999999999954e-08,4829.702493822423,-1952700508630.791,322.35483749817234,5101073466485349.0
1.4199999999999953e-08,5036.888621792393,-2074839407398.757,322.9086333648648,5297705269887678.0
1.4299999999999953e-08,5257.468533909851,-2207574831801.7485,323.4742746076383,5507089940638884.0
1.4399999999999952e-08,5492.635188506065,-2352029514083.0522,324.0519614304342,5730302633518115.0
1.4499999999999951e-08,5743.710774426018,-2509463248114.2046,324.6418960527735,5968523487651553.0
1.459999999999995e-08,6012.162796337076,-2681291554323.257,325.2442826961472,6223049074046650.0
1.469999999999995e-08,6299.622388552908,-2869107119086.29,325.8593275693733,6495305204823115.0
1.4799999999999949e-08,6607.905193820642,-3074704452005.227,326.48723885290605,6786861278056636.0
1.4899999999999948e-08,6939.035198061878,-3300108279852.4595,327.1282266820806,7099446355722135.0
1.499999999999995e-08,7295.2719759931415,-3547606284822.5967,327.7825031292802,7434967199152644.0
1.509999999999995e-08,7679.141877581983,-3819786899625.716,328.45028218500994,7795528517216867.0
1.519999999999995e-08,8093.473773448322,-4119582995914.1855,329.1317797378639,8183455717639349.0
1.5299999999999952e-08,8541.44008101088,-4450322449177.525,329.8272135533703,8601320492206965.0
1.5399999999999953e-08,9026.603915283818,-4815786736907.458,330.5368032517031,9051969612792996.0
1.5499999999999954e-08,9552.973352183992,-5220278932726.954,331.26077028424373,9538557368073330.0
1.5599999999999954e-08,10125.063962118173,-5668702703536.072,331.99933790898325,1.006458213153596e+16
1.5699999999999955e-08,10747.970972389583,-6166654207045.894,332.7527311647489,1.063392762108331e+16
1.5799999999999956e-08,11427.45265446845,-6720529132362.452,333.52117684424525,1.1250909490573234e+16
1.5899999999999957e-08,12170.026813451239,-7337647537384.248,334.3049034658962,1.1920327985632148e+16
1.5999999999999958e-08,12983.082590530264,-8026399626746.055,335.10414124447675,1.264752750184951e+16
1.609999999999996e-08,13875.01018514631,-8796416198617.307,335.91912206052376,1.3438464005166966e+16
1.619999999999996e-08,14855.351573883008,-9658768186828.324,336.75007942851363,1.4299781414390866e+16
1.629999999999996e-08,15934.975862736786,-10626200559482.828,337.5972484637972,1.523889820716339e+16
1.639999999999996e-08,17126.283575803736,-11713406834125.424,338.4608658482818,1.626410569676918e+16
1.6499999999999962e-08,18443.444977928993,-12937351666184.467,339.34116979485015,1.7384679641712746e+16
1.6599999999999963e-08,19902.678477116056,-14317650402378.113,340.2384000105076,1.8611007097587812e+16
1.6699999999999964e-08,21522.57628546461,-15877016213211.758,341.15279765824846,1.99547307066136e+16
1.6799999999999965e-08,23324.48587252519,-17641787488219.42,342.08460531763336,2.142891295042828e+16
1.6899999999999966e-08,25332.957367501745,-19642550666546.723,343.03406694406976,2.304822327339226e+16
1.6999999999999967e-08,27576.26901151014,-21914876671694.316,344.001427826788,2.4829151425006068e+16
1.7099999999999968e-08,30087.045094527137,-24500192729519.195,344.9869345455066,2.6790250880683092e+16
1.719999999999997e-08,32902.98361428385,-27446815702803.594,345.99083492577984,2.895241679120153e+16
1.729999999999997e-08,36067.714263930335,-30811178331947.91,347.01337799302246,3.133920359569467e+16
1.739999999999997e-08,39631.81141057679,-34659286122185.69,348.05481392520545,3.3977188226167964e+16
1.749999999999997e-08,43653.991612173515,-39068450297899.45,349.1153940042193,3.6896385750896136e+16
1.7599999999999972e-08,48202.53111127962,-44129351540439.35,350.19537056589905,4.013072537021153e+16
1.7699999999999973e-08,53356.94585497042,-49948500486788.875,351.29499694870884,4.371859591510647e+16
1.7799999999999974e-08,59209.985181066375,-56651174619290.81,352.4145274410823,4.770347143466757e+16
1.7899999999999975e-08,65870.0006998431,-64384927743040.12,353.5542172274166,5.213462912520561e+16
1.7999999999999976e-08,73463.76447523115,-73323788365296.12,354.71432233271764,5.706797379001831e+16
1.8099999999999977e-08,82139.8258438342,-83673287740720.53,355.89509956589626,6.256698526831381e+16
1.8199999999999978e-08,92072.51468261937,-95676488082728.62,357.096806461714,6.870380788659677e+16
1.829999999999998e-08,103466.72135452737,-109621217634797.92,358.3197012213779,7.556050402603947e+16
1.839999999999998e-08,116563.6107913933,-125848763380048.0,359.56404265178713,8.323049743534e+16
1.849999999999998e-08,131647.4612755574,-144764325900617.5,360.8300901034294,9.182023603232859e+16
1.859999999999998e-08,149053.85875404993,-166849606436410.9,362.11810340693233,1.0145110872483374e+17
1.8699999999999982e-08,169179.52655405866,-192677976181282.66,363.4283428082699,1.1226165635370824e+17
1.8799999999999983e-08,192494.13011772677,-222932775541242.7,364.76106890262855,1.2441012334871915e+17
1.8899999999999984e-08,219554.46923357734,-258429410451785.84,366.11654256693623,1.3807740424320213e+17
1.8999999999999985e-08,251021.55915170012,-300142058808670.56,367.4950248910592,1.5347044799325962e+17
1.9099999999999986e-08,287681.2105420472,-349235978627815.6,368.8967771076712,1.708261932986571e+17
1.9199999999999987e-08,330468.8509277657,-407106628113765.9,370.32206052080215,1.9041612006663597e+17
1.9299999999999988e-08,380499.4924539215,-475427075477842.9,371.7711364330719,2.1255151607790515e+17
1.939999999999999e-08,439103.94934509136,-556205504290784.94,373.2442660716162,2.375895741340487e+17
1.949999999999999e-08,507872.65141625784,-651855022135297.0,374.74171051271406,2.659404538698194e+17
1.959999999999999e-08,588708.6976865217,-765278473260468.1,376.26373060512424,2.98075464447845e+17
1.969999999999999e-08,683892.1590064536,-899971560645474.9,377.81058689214024,3.3453655003634586e+17
1.9799999999999992e-08,796158.0860413931,-1060148324959828.4,379.38253953237495,3.759472899073128e+17
1.9899999999999993e-08,928791.2279140111,-1250893938863569.2,380.9798482192843,4.230256598874749e+17
1.9999999999999994e-08,1085741.1406555574,-1478350893680033.0,382.6027720994431,4.7659884256714266e+17
2.0099999999999995e-08,1271762.1921228012,-1749946029376115.8,384.25156968958385,5.376204210766419e+17
2.0199999999999996e-08,1492583.9866676535,-2074667546654078.8,385.9264987924133,6.071903464863323e+17
2.0299999999999996e-08,1755118.9823021379,-2463403213937931.0,387.6278164112182,6.865781332644371e+17
2.0399999999999997e-08,2067715.6092493227,-2929353530850117.5,389.35577866327714,7.77249812236761e+17
