t(s),Adsorbed H on surface 1 (H m-2),solute flux surface 1 (H m-2 s-1),Total T surface 1 (K),0 value at [0] (H m-3)
1e-10,0.1809539825703237,-1852200544.3294704,300.2140391161256,12990764095202.152
2e-10,0.5434525301007349,-3710349232.6558156,300.2283973038835,26005651748213.594
3e-10,1.0879463141370103,-5573014152.868987,300.2399309183624,39039959275248.78
4e-10,1.8148374327675756,-7439697705.230521,300.25020065326606,52091590577468.88
5e-10,2.724504767260626,-9310161449.478495,300.2597875351548,65159418836189.9
6e-10,3.817315712880025,-11184286889.128271,300.26897994052973,78242798800533.98
7e-10,5.093632847007197,-13062023710.368254,300.2779457999408,91341366082148.67
7.999999999999999e-10,6.553818218658984,-14943365453.82239,300.2867936384733,104454938195694.9
8.999999999999999e-10,8.198236359658866,-16828336436.089699,300.29559905111984,117583459734565.92
9.999999999999999e-10,10.027256545060574,-18716984067.15747,300.3044178244387,130726969423808.45
1.1e-09,12.041254584318455,-20609374047.19782,300.31329309095423,143885579103813.12
1.2e-09,14.24061430566366,-22505587225.332314,300.3222595210935,157059459706879.7
1.3e-09,16.625728833325667,-24405717477.790997,300.33134592187207,170248831571102.72
1.4000000000000001e-09,19.197001721774857,-26309870242.66584,300.34057692292424,183453957570542.7
1.5000000000000002e-09,21.95484799003376,-28218161495.095173,300.34997411234184,196675138144872.06
1.6000000000000003e-09,24.899695085950512,-30130717028.284397,300.3595568265153,209912707652092.16
1.7000000000000003e-09,28.03198380183273,-32047671953.43113,300.36934271451025,223167031668861.47
1.8000000000000004e-09,31.35216915718108,-33969170360.64269,300.3793481509961,236438504986385.25
1.9000000000000005e-09,34.860721260391685,-35895365101.23509,300.3895885447416,249727550128214.47
2.0000000000000005e-09,38.55812615858956,-37826417663.706245,300.400078573432,263034616267594.7
2.1000000000000006e-09,42.444886682825135,-39762498123.623314,300.41083236544915,276360178456442.34
2.2000000000000007e-09,46.52152329446666,-41703785153.09855,300.4218636427866,289704737101679.1
2.3000000000000007e-09,50.78857493759342,-43650466079.32634,300.43318583502844,303068817641237.4
2.400000000000001e-09,55.24659990143037,-45602736984.35222,300.4448121714745,316452970383888.5
2.500000000000001e-09,59.89617669629252,-47560802840.20785,300.4567557565494,329857770485642.44
2.600000000000001e-09,64.73790494607522,-49524877674.984955,300.46902963227416,343283818041804.1
2.700000000000001e-09,69.77240630000051,-51495184766.49861,300.48164683062055,356731738278509.1
2.800000000000001e-09,75.000325366083,-53471956861.01059,300.4946204178769,370202181831150.9
2.900000000000001e-09,80.42233066859409,-55455436415.11041,300.5079635326516,383695825099865.1
3.0000000000000012e-09,86.03911563166596,-57445875859.3442,300.5216894187685,397213370674370.7
3.1000000000000013e-09,91.85139959107865,-59443537882.56767,300.53581145403217,410755547822145.56
3.2000000000000014e-09,97.85992883620412,-61448695736.315735,300.55034317563144,424323113035246.6
3.3000000000000014e-09,104.06547768403848,-63461633558.72668,300.56529830278987,437916850632148.1
3.4000000000000015e-09,110.46884958722993,-65482646717.777466,300.58069075714974,451537573411842.44
3.5000000000000016e-09,117.07087827800437,-67512042173.757965,300.59653468128096,465186123358157.25
3.6000000000000016e-09,123.87242894989974,-69550138861.06038,300.61284445563115,478863372392831.94
3.7000000000000017e-09,130.87439947924187,-71597268089.49945,300.62963471417595,492570223176394.5
3.800000000000002e-09,138.07772168832776,-73653773965.48288,300.64692035898,506307609956301.06
3.900000000000002e-09,145.48336265232612,-75720013833.46677,300.6647165738438,520076499462164.8
4.000000000000002e-09,153.09232605195766,-77796358738.22185,300.6830388371804,533877891848219.94
4.100000000000002e-09,160.90565357407942,-79883193908.52322,300.70190293424196,547712821683448.0
4.200000000000002e-09,168.92442636236822,-81980919262.96848,300.72132496879675,561582358990048.75
4.300000000000002e-09,177.14976652037632,-84089949938.70638,300.741321374341,575487610331172.8
4.400000000000002e-09,185.5828386693187,-86210716843.93964,300.7619089249156,589429719949043.4
4.500000000000002e-09,194.22485156304683,-88343667235.14734,300.78310474558907,603409870954806.5
4.600000000000002e-09,203.07705976276446,-90489265320.05173,300.804926322656,617429286571632.5
4.700000000000002e-09,212.14076537415366,-92647992887.43668,300.82739151359567,631489231432791.0
4.8000000000000024e-09,221.41731984969604,-94820349965.00461,300.85051855682593,645591012936595.0
4.9000000000000025e-09,230.90812585910362,-97006855506.55542,300.8743260812856,659735982660300.1
5.0000000000000026e-09,240.61463923090804,-99208048109.84142,300.8988331158703,673925537835223.5
5.100000000000003e-09,250.53837096840456,-101424486766.56967,300.92405909874657,688161122885532.1
5.200000000000003e-09,260.6808893433004,-103656751646.09254,300.9500238865621,702444231033336.6
5.300000000000003e-09,271.04382207058444,-105905444914.45653,300.9767477635703,716776405972922.2
5.400000000000003e-09,281.62885856830945,-108171191590.56169,301.00425145068255,731159243617142.4
5.500000000000003e-09,292.43775230616785,-110454640441.31995,301.0325561144617,745594393919207.9
5.600000000000003e-09,303.47232324693846,-112756464917.79541,301.06168337606556,760083562773317.0
5.700000000000003e-09,314.73446038509667,-115077364134.4644,301.09165532015066,774628513997794.4
5.800000000000003e-09,326.226124387104,-117418063893.84055,301.12249450374355,789231071404640.2
5.900000000000003e-09,337.94935033813334,-119779317758.8697,301.1542239650849,803893120959633.5
6.000000000000003e-09,349.9062506002418,-122161908175.64778,301.1868672324532,818616613037394.0
6.100000000000003e-09,362.09901778727254,-124566647649.17021,301.220448332971,833403564776074.1
6.200000000000003e-09,374.52992786205766,-126994379974.99954,301.2549918013976,848256062536641.4
6.3000000000000035e-09,387.2013433617981,-129445981529.91919,301.29052268891127,863176264472013.1
6.4000000000000035e-09,400.1157167578253,-131922362624.83598,301.3270665718823,878166403211625.2
6.500000000000004e-09,413.27559395629504,-134424468923.40126,301.3646495606387,893228788667355.5
6.600000000000004e-09,426.6836179467335,-136953282930.04684,301.4032983082251,908365810967081.8
6.700000000000004e-09,440.3425326057492,-139509825551.36923,301.4430400191558,923579943522536.9
6.800000000000004e-09,454.2551866636443,-142095157735.0448,301.48390245816125,938873746238528.9
6.900000000000004e-09,468.42453784210227,-144710382190.73856,301.5259139589279,954249868871021.4
7.000000000000004e-09,482.85365717160835,-147356645197.7537,301.56910343282976,969711054542032.0
7.100000000000004e-09,497.5457334977619,-150035138504.49222,301.61350037765203,985260143419792.8
7.200000000000004e-09,512.5040781861836,-152747101325.111,301.6591348863033,1000900076573131.8
7.300000000000004e-09,527.7321300362948,-155493822439.1402,301.70603765551596,1016633900009594.4
7.400000000000004e-09,543.2334604148617,-158276642400.1989,301.7542399945318,1032464768907405.5
7.500000000000004e-09,559.0117786208543,-161096955860.35913,301.80377383377095,1048395952052005.5
7.600000000000004e-09,575.0709374938708,-163956214017.1558,301.85467173348115,1064430836488563.2
7.700000000000003e-09,591.4149392791255,-166855927190.71152,301.90696689236455,1080572932402580.0
7.800000000000002e-09,608.0479417628004,-169797667538.9563,301.9606931561789,1096825878241467.5
7.900000000000001e-09,624.9742646924155,-172783071919.47534,302.01588502631,1113193446090792.6
8e-09,642.1983964977862,-175813844907.09808,302.07257766831157,1129679547319755.8
8.1e-09,659.7250013291165,-178891761976.99213,302.13080692040865,1146288238511398.2
8.199999999999999e-09,677.5589264298238,-182018672863.6957,302.19060930196156,1163023727694032.0
8.299999999999998e-09,695.7052098628131,-185196505107.26404,302.25202202188495,1179890380891446.2
8.399999999999997e-09,714.1690886101179,-188427267798.4996,302.3150829870189,1196892729010587.2
8.499999999999997e-09,732.9560070671153,-191713055536.0838,302.37983081044626,1214035475086623.5
8.599999999999996e-09,752.0716259539032,-195056052609.36548,302.44630481975355,1231323501906621.2
8.699999999999995e-09,771.5218316679063,-198458537421.52982,302.5145450652282,1248761880034443.8
8.799999999999994e-09,791.312746103368,-201922887168.97702,302.58459232798964,1266355876260996.0
8.899999999999994e-09,811.4507369650925,-205451582793.8709,302.65648812804716,1284110962505540.2
8.999999999999993e-09,831.9424286056313,-209047214228.0846,302.7302747322805,1302032825195531.2
9.099999999999992e-09,852.794713417081,-212712485948.12924,302.80599516233735,1320127375154267.8
9.199999999999991e-09,874.014763810771,-216450222862.1056,302.8836932024424,1338400758027649.2
9.29999999999999e-09,895.6100448204046,-220263376551.3013,302.96341340711183,1356859365283448.0
9.39999999999999e-09,917.5883273666592,-224155031890.79495,303.0452011087685,1375509845818806.0
9.499999999999989e-09,939.957702223896,-228128414075.25458,303.1291024252502,1394359118214120.8
9.599999999999988e-09,962.7265947324685,-232186896078.16345,303.21516426720706,1413414383674130.2
9.699999999999988e-09,985.9037803031822,-236334006574.87076,303.3034343453797,1432683139699855.0
9.799999999999987e-09,1009.498400763764,-240573438362.24435,303.3939611777536,1452173194538109.5
9.899999999999986e-09,1033.5199816007564,-244909057310.2763,303.4867940965827,1471892682458596.8
9.999999999999985e-09,1057.9784501541048,-249344911883.77475,303.58198325527445,1491850079912139.5
1.0099999999999985e-08,1082.8841548258547,-253885243275.34067,303.6795796351323,1512054222627426.0
1.0199999999999984e-08,1108.2478853688642,-258534496194.09552,303.7796350519462,1532514323707762.0
1.0299999999999983e-08,1134.080894326293,-263297330358.24176,303.8822021624256,1553239992793761.2
1.0399999999999982e-08,1160.3949196978701,-268178632743.44717,303.98733447046794,1574241256362689.8
1.0499999999999982e-08,1187.2022089146292,-273183530643.2897,304.0950863332552,1595528579240342.8
1.059999999999998e-08,1214.5155442099456,-278317405602.6549,304.2055129671712,1617112887406908.5
1.069999999999998e-08,1242.3482694813779,-283585908290.03424,304.31867045353306,1639005592184286.8
1.079999999999998e-08,1270.7143187450354,-288994974380.18414,304.4346157441285,1661218615898834.5
1.0899999999999978e-08,1299.6282462920326,-294550841524.64905,304.55340666655235,1683764419120529.5
1.0999999999999978e-08,1329.1052586650937,-300260067494.2157,304.6751019293341,1706656029587143.8
1.1099999999999977e-08,1359.161248582605,-306129549584.5766,304.7997611268495,1729907072930227.2
1.1199999999999976e-08,1389.8128309474478,-312166545384.3311,304.9274447440074,1753531805328591.8
1.1299999999999975e-08,1421.077381088852,-318378695013.0676,305.0582141607057,1777545148224604.2
1.1399999999999975e-08,1452.973075397377,-324774044946.6892,305.19213165604657,1801962725249019.2
1.1499999999999974e-08,1485.5189345260437,-331361073557.4728,305.3292604123047,1826800901511362.5
1.1599999999999973e-08,1518.7348693447104,-338148718507.6546,305.4696645186396,1852076825425117.5
1.1699999999999972e-08,1552.6417298501126,-345146406147.75476,305.6134089745445,1877808473250227.0
1.1799999999999972e-08,1587.2613572507084,-352364083084.46484,305.7605596930227,1904014696549812.8
1.1899999999999971e-08,1622.6166394637098,-359812250097.8719,305.9111835034846,1930715272773635.5
1.199999999999997e-08,1658.7315702815952,-367501998604.25183,306.06534815435623,1957930959197770.0
1.209999999999997e-08,1695.6313124871585,-375445049878.6833,306.22312231539115,1985683550468386.8
1.2199999999999969e-08,1733.3422652199315,-383653797271.66656,306.38457557967774,2013995940017552.2
1.2299999999999968e-08,1771.8921359228336,-392141351675.76074,306.549778465333,2042892185640705.5
1.2399999999999967e-08,1811.310017226384,-400921590522.4117,306.71880241687535,2072397579549145.5
1.2499999999999966e-08,1851.6264691589943,-410009210615.66583,306.891719806267,2102538723236606.0
1.2599999999999966e-08,1892.8736071060518,-419419785138.7963,307.0686039336182,2133343607527027.5
1.2699999999999965e-08,1935.0851959779861,-429169825202.2265,307.2495290275446,2164841698201164.8
1.2799999999999964e-08,1978.2967510886535,-439276846336.83466,307.43457024516965,2197064027632926.5
1.2899999999999963e-08,2022.5456462905586,-449759440376.2196,307.62380367176286,2230043292902608.5
1.2999999999999963e-08,2067.8712299630697,-460637353215.17334,307.8173063200064,2263813960893713.0
1.3099999999999962e-08,2114.31494950438,-471931568979.9192,308.0151561288812,2298412380923192.5
1.3199999999999961e-08,2161.920485038037,-483664401199.1535,308.21743196216323,2333876905502036.0
1.329999999999996e-08,2210.7338931109985,-495859591624.26666,308.42421360652344,2370248019874545.5
1.339999999999996e-08,2260.8037612330622,-508542417412.7973,308.6355817692215,2407568481040817.0
1.3499999999999959e-08,2312.1813741878577,-521739807462.1454,308.85161807538503,2445883467028343.0
1.3599999999999958e-08,2364.9208931342687,-535480468761.5425,309.0724050648669,2485240737245802.0
1.3699999999999957e-08,2419.079548615037,-549795023720.2683,309.29802618867154,2525690804825537.0
1.3799999999999956e-08,2474.717848697469,-564716159530.1166,309.5285658049424,2567287121941633.0
1.3899999999999956e-08,2531.899803590764,-580278790731.4437,309.76410917450187,2610086279178522.5
1.3999999999999955e-08,2590.6931682168074,-596520236276.0311,310.0047424559365,2654148220121481.0
1.4099999999999954e-08,2651.1697043578024,-613480412518.0854,310.2505527002184,2699536472446076.5
1.4199999999999953e-08,2713.405464166449,-631202043718.5553,310.5016278448557,2746318396899512.5
1.4299999999999953e-08,2777.481097004413,-649730891819.7546,310.75805670756347,2794565455693940.5
1.4399999999999952e-08,2843.482181774575,-669116007438.9121,311.0199289794476,2844353501971341.5
1.4499999999999951e-08,2911.4995871343526,-689410004243.5513,311.28733521769465,2895763092152772.5
1.459999999999995e-08,2981.629862223892,-710669359110.948,311.56036683775807,2948879823153059.0
1.469999999999995e-08,3053.9756608170046,-732954740741.9679,311.83911610503594,3003794696626962.0
1.4799999999999949e-08,3128.6462021077755,-756331369699.3877,312.12367612603026,3060604512616200.0
1.4899999999999948e-08,3205.7577716854644,-780869413176.9635,312.4141408389825,3119412295190391.0
1.499999999999995e-08,3285.4342666289276,-806644418182.2008,312.7106050039773,3180327752921154.0
1.509999999999995e-08,3367.807789074042,-833737787238.4875,313.01316419250696,3243467777299635.5
1.519999999999995e-08,3453.0192930789076,-862237301186.9113,313.321914776491,3308956982506289.5
1.5299999999999952e-08,3541.219290138033,-892237694201.1976,313.6369539167432,3376928290270740.0
1.5399999999999953e-08,3632.568619285131,-923841286728.8263,313.95837955087984,3447523563922280.0
1.5499999999999954e-08,3727.2392883824036,-957158682745.9027,314.28629038066254,3520894296131681.0
1.5599999999999954e-08,3825.41539393107,-992309538472.8533,314.6207858587697,3597202355286484.0
1.5699999999999955e-08,3927.294127563417,-1029423410553.8828,314.9619661749908,3676620795929404.5
1.5799999999999956e-08,4033.0868783022133,-1068640692667.9655,315.3099322418366,3759334739227833.5
1.5899999999999957e-08,4143.020440711762,-1110113650628.1213,315.66478567956113,3845542330037354.0
1.5999999999999958e-08,4257.3383402309,-1154007567255.0276,316.0266288005886,3935455777779836.5
1.609999999999996e-08,4376.30228828848,-1200502009700.4573,316.3955645933407,4029302489084062.0
1.619999999999996e-08,4500.193781275256,-1249792233466.888,316.77169670545936,4127326300941619.0
1.629999999999996e-08,4629.315859104267,-1302090739147.4302,317.15512942641965,4229788824021717.5
1.639999999999996e-08,4763.9950409592175,-1357628999923.2537,317.5459676695285,4336970906775196.0
1.6499999999999962e-08,4904.583457935169,-1416659380137.008,317.94431695330513,4449174232051052.0
1.6599999999999963e-08,5051.461204649861,-1479457267847.6711,318.35028338223844,4566723059160454.0
1.6699999999999964e-08,5205.038934583825,-1546323447208.1055,318.7639736269185,4689966125666680.0
1.6799999999999965e-08,5365.760726934598,-1617586739840.4565,319.18549490353746,4819278724669844.0
1.6899999999999966e-08,5534.107256192655,-1693606948173.4656,319.61495495275705,4955064975009403.0
1.6999999999999967e-08,5710.5992995183515,-1774778138014.4841,320.05246201794023,5097760303643942.0
1.7099999999999968e-08,5895.801621382763,-1861532302532.448,320.49812482274297,5247834161507702.0
1.719999999999997e-08,6090.327279902113,-1954343455412.5657,320.9520525480646,5405792996410083.0
1.729999999999997e-08,6294.842404927297,-2053732207307.294,321.4143548083544,5572183509064312.0
1.739999999999997e-08,6510.071504340763,-2160270886966.095,321.88514162727216,5747596221133894.0
1.749999999999997e-08,6736.803362270259,-2274589276708.931,322.36452341270177,5932669387303367.0
1.7599999999999972e-08,6975.897601176427,-2397381041367.1885,322.8526109311156,6128093286850134.0
1.7699999999999973e-08,7228.291989150931,-2529410940625.2427,323.34951528129005,6334614934058021.0
1.7799999999999974e-08,7495.010584437071,-2671522927056.7305,323.8553478673705,6553043251117118.0
1.7899999999999975e-08,7777.17282134362,-2824649246295.3496,324.3702203712858,6784254751950258.0
1.7999999999999976e-08,8076.003655581143,-2989820671977.9453,324.89424472451276,7029199790752470.0
1.8099999999999977e-08,8392.844902857581,-3168178026658.98,325.42753307918986,7288909434991184.0
1.8199999999999978e-08,8729.167922613546,-3360985161178.687,325.9701977785831,7564503029265253.0
1.829999999999998e-08,9086.587819388764,-3569643589387.3237,326.5223513269021,7857196523842067.0
1.839999999999998e-08,9466.87935787177,-3795709003166.934,327.08410635847093,8168311649976781.0
1.849999999999998e-08,9871.994814636448,-4040909924904.9487,327.6555756062535,8499286033369232.0
1.859999999999998e-08,10304.084020421473,-4307168791608.348,328.2368718697365,8851684347449333.0
1.8699999999999982e-08,10765.516882151442,-4596625807450.192,328.82810798217247,9227210619730840.0
1.8799999999999983e-08,11258.908714413416,-4911665950580.858,329.42939677718584,9627721817383792.0
1.8899999999999984e-08,11787.148756578958,-5254949576522.634,330.04085105474553,1.0055242852612146e+16
1.8999999999999985e-08,12353.432305113189,-5629447125568.7,330.6625835465075,1.0511983164570904e+16
1.9099999999999986e-08,12961.296951897953,-6038478516686.165,331.294706880532,1.1000355052624772e+16
1.9199999999999987e-08,13614.663489843117,-6485757897058.713,331.93733354537926,1.152299395597207e+16
1.9299999999999988e-08,14317.882128092164,-6975444516436.477,332.59057585358954,1.2082780897297124e+16
1.939999999999999e-08,15075.784752397787,-7512200611027.522,333.2545459045525,1.2682867333467356e+16
1.949999999999999e-08,15893.744073668278,-8101257315256.705,333.9293555467714,1.3326702684690964e+16
1.959999999999999e-08,16777.740631495006,-8748489774234.06,334.6151163395286,1.4018064845372186e+16
1.969999999999999e-08,17734.438762254835,-9460502808591.596,335.3119395139595,1.476109401556428e+16
1.9799999999999992e-08,18771.272806151115,-10244728690403.008,336.0199359335414,1.5560330231900132e+16
1.9899999999999993e-08,19896.545017816185,-11109538828781.387,336.7392160540044,1.642075502170874e+16
1.9999999999999994e-08,21119.536864925645,-12064371441810.77,337.46988988267367,1.7347837654303366e+16
2.0099999999999995e-08,22450.63565341811,-13119877613947.844,338.21206693725003,1.8347586519827064e+16
2.0199999999999996e-08,23901.47871190552,-14288088512222.963,338.9658562040384,1.942660622932337e+16
2.0299999999999996e-08,25485.11770814525,-15582606968976.336,339.73136609563306,2.0592161100716936e+16
2.0399999999999997e-08,27216.206064542355,-17018827143429.635,340.5087044080698,2.1852245775101264e+16
2.0499999999999998e-08,29111.21289632514,-18614186560713.492,341.2979782774545,2.3215663797218496e+16
