t(s),Adsorbed H on surface 1 (H m-2),solute flux surface 1 (H m-2 s-1),Total T surface 1 (K),0 value at [0] (H m-3)
1e-08,2716.298035630803,-2759168565.4204507,300.3515966137689,1936967729359351.0
2e-08,8300.501124873832,-5650217190.593296,300.5945777306658,3935066042757558.0
3.0000000000000004e-08,16956.361056425972,-8723720305.215233,300.89443501312644,6011071688777363.0
4e-08,28935.61080744648,-12025443019.531261,301.2397111691368,8180430088934828.0
5e-08,44537.95096982564,-15600318979.226856,301.62309565084195,1.0458164955107928e+16
6e-08,64113.14730991792,-19494566819.448772,302.03935067004505,1.2859423521029576e+16
6.999999999999999e-08,88064.54679945688,-23757069651.996662,302.4844649819767,1.5399828013557604e+16
7.999999999999999e-08,116853.73841732448,-28440451695.447147,302.9552282470406,1.8095735254314096e+16
8.999999999999999e-08,151006.2560486851,-33602029646.67743,303.44898957495,2.09644488980428e+16
9.999999999999998e-08,191118.30555145265,-39304726474.666405,303.9635086166726,2.4024406689642856e+16
1.0999999999999998e-07,237864.547278616,-45617998067.39523,304.4968578566479,2.729535521076819e+16
1.2e-07,292006.99826296524,-52618805968.0991,305.04735534743276,3.0798519658840896e+16
1.3e-07,354405.1432588928,-60392661023.729,305.6135165922186,3.4556773553583212e+16
1.4e-07,426027.36494668433,-69034758635.70422,306.1940190285013,3.859481175644062e+16
1.5000000000000002e-07,507963.8229781494,-78651224453.80922,306.7876751190113,4.2939329286569416e+16
1.6000000000000003e-07,601440.9303990975,-89360488828.68854,307.3934115081084,4.76192078586405e+16
1.7000000000000004e-07,707837.5950730008,-101294808647.05965,308.01025256736307,5.266571171209344e+16
1.8000000000000005e-07,828703.41354554,-114601956055.81549,308.63730719072004,5.811269407028237e+16
1.9000000000000006e-07,965779.02568294,-129447094894.53868,309.27375804387106,6.399681541555128e+16
2.0000000000000007e-07,1121018.860656515,-146014867323.29266,309.91885269983226,7.035777466509562e+16
2.1000000000000008e-07,1296616.5286510775,-164511715113.87628,310.5718962468108,7.723855426530466e+16
2.200000000000001e-07,1495033.138235907,-185168462350.22394,311.2322450612698,8.468568017809576e+16
2.300000000000001e-07,1719028.846826348,-208243188853.99945,311.89930151466876,9.27494977042649e+16
2.400000000000001e-07,1971697.9812440376,-234024426520.42752,312.57250943679236,1.0148446407118242e+17
2.500000000000001e-07,2256508.097210595,-262834713929.8771,313.2513501984333,1.1094945870186616e+17
2.600000000000001e-07,2577343.3808366694,-295034548110.1285,313.9353393058118,1.2120811207718277e+17
2.700000000000001e-07,2938552.8319475735,-331026776184.75464,314.624023421418,1.323291541009438e+17
2.800000000000001e-07,3345003.7085701106,-371261473879.36035,315.31697774296873,1.4438678287772355e+17
2.9000000000000014e-07,3802140.7542446377,-416241362498.50916,316.01380368528436,1.574610548143823e+17
3.0000000000000015e-07,4316051.775174718,-466527821062.63434,316.71412682010816,1.716382969578319e+17
3.1000000000000016e-07,4893540.18273703,-522747555840.89966,317.4175950369297,1.8701154248296154e+17
3.2000000000000017e-07,5542205.168700375,-585599995569.2004,318.1238768942534,2.0368099024542883e+17
3.300000000000002e-07,6270530.235798615,-655865487242.5365,318.8326601358596,2.2175448931385626e+17
3.400000000000002e-07,7087980.865221996,-734414374560.0513,319.5436503507252,2.4134804939458176e+17
3.500000000000002e-07,8005112.16528788,-822217048925.2479,320.25656975861494,2.6258637805925533e+17
3.600000000000002e-07,9033687.412177652,-920355071411.5546,320.97115610609364,2.8560344568106515e+17
3.700000000000002e-07,10186808.464332005,-1030033473346.5258,321.6871616599602,3.105430789790515e+17
3.800000000000002e-07,11479059.107030533,-1152594353201.006,322.4043522869707,3.375595840616979e+17
3.9000000000000024e-07,12926662.462989038,-1289531898352.1628,323.12250661027076,3.6681839985064595e+17
4.0000000000000025e-07,14547653.688631404,-1442508972080.8584,323.84141523425797,3.984967827528993e+17
4.1000000000000026e-07,16362069.264170384,-1613375418932.5837,324.5608800306889,4.32784523435145e+17
4.2000000000000027e-07,18392154.27889637,-1804188255381.915,325.2807134797711,4.6988469653680864e+17
4.300000000000003e-07,20662589.211252734,-2017233927670.0496,326.0007380607643,5.1001444413907795e+17
4.400000000000003e-07,23200737.806492344,-2255052834805.016,326.7207856872867,5.534057937853771e+17
4.500000000000003e-07,26036917.763076514,-2520466332107.8555,327.44069718309487,6.003065118245987e+17
4.600000000000003e-07,29204696.052602027,-2816606449436.429,328.160321794599,6.509809928217998e+17
4.700000000000003e-07,32741210.817022104,-3146948578410.8164,328.8795167368014,7.057111857520298e+17
4.800000000000003e-07,36687521.91135271,-3515347404690.3647,329.59814676971365,7.647975576614843e+17
4.900000000000003e-07,41088992.2900056,-3926076384707.629,330.3160838026288,8.285600954462917e+17
5.000000000000003e-07,45995702.5704332,-4383871091347.7417,331.03320652390346,8.973393463629478e+17
5.100000000000003e-07,51462901.248965204,-4893976779975.744,331.74940005414976,9.714974978457573e+17
5.200000000000003e-07,57551493.19060853,-5462200555064.753,332.4645556209486,1.0514194971656526e+18
5.300000000000003e-07,64328569.167204745,-6094968548575.334,333.178570253387,1.1375142114214953e+18
5.400000000000003e-07,71867979.37671205,-6799388554293.936,333.89134649488597,1.2302156283094623e+18
5.500000000000003e-07,80250954.0405098,-7583318597672.918,334.60279213293296,1.3299840980684628e+18
5.600000000000004e-07,89566774.34550336,-8455441958447.267,335.3128199444626,1.437307616949758e+18
5.700000000000004e-07,99913497.17341678,-9425349203555.309,336.02134745574585,1.5527031525071913e+18
5.800000000000004e-07,111398737.24095845,-10503627830793.418,336.7282967157486,1.6767180109506732e+18
5.900000000000004e-07,124140510.46148314,-11701960169308.543,337.43359408201604,1.809931246750042e+18
6.000000000000004e-07,138268142.53127933,-13033230231621.768,338.1371700182171,1.9529551146190262e+18
6.100000000000004e-07,153923246.94160178,-14511640263502.834,338.83895890256025,2.1064365639500636e+18
6.200000000000004e-07,171260776.82094342,-16152837792822.984,339.53889884635726,2.2710587757101862e+18
6.300000000000004e-07,190450155.2206792,-17974054036638.12,340.2369315220695,2.447542741746142e+18
6.400000000000004e-07,211676488.67098477,-19994254587336.89,340.93300200022725,2.6366488863836063e+18
6.500000000000004e-07,235141869.0526812,-22234303363863.633,341.62705859466047,2.8391787301407785e+18
6.600000000000005e-07,261066769.05421454,-24717140882946.234,342.3190527155215,3.0559765953109714e+18
6.700000000000005e-07,289691536.71116203,-27467977978055.45,343.00893872962297,3.287931353102184e+18
6.800000000000005e-07,321277994.758261,-30514506170638.008,343.6966738276484,3.5359782119541673e+18
6.900000000000005e-07,356111150.7607626,-33887125979155.46,344.38221789782597,3.801100546585262e+18
7.000000000000005e-07,394501024.2326827,-37619194536742.56,345.0655334056864,4.0843317672524826e+18
7.100000000000005e-07,436784597.1940111,-41747293978031.734,345.7465852795532,4.386757228639082e+18
7.200000000000005e-07,483327894.8668651,-46311522149997.49,346.4253408014385,4.709516177714242e+18
7.300000000000005e-07,534528203.4616671,-51355807300706.234,347.1017695030395,5.053803739839707e+18
7.400000000000005e-07,590816432.2583724,-56928248503722.414,347.7758430665535,5.420872942328429e+18
7.500000000000005e-07,652659627.4442688,-63081483684777.53,348.4475352300466,5.812036774590446e+18
7.600000000000006e-07,720563645.428577,-69873087231255.97,349.1168216971303,6.228670283931737e+18
7.700000000000006e-07,795075993.6146647,-77365999284224.66,349.78368005071593,6.67221270600259e+18
7.800000000000006e-07,876788846.8727801,-85628988937236.02,350.44808967063085,7.144169628823307e+18
7.900000000000006e-07,966342248.2194525,-94737153696098.38,351.1100316548965,7.646115189247009e+18
8.000000000000006e-07,1064427502.473713,-104772457689296.53,351.7694887444783,8.179694300651979e+18
8.100000000000006e-07,1171790771.924662,-115824311259919.53,352.4264452513314,8.746624910589505e+18
8.200000000000006e-07,1289236883.3092525,-127990194716807.22,353.0808869895757,9.348700287047846e+18
8.300000000000006e-07,1417633355.6630561,-141376329175365.34,353.73280120964455,9.987791331928599e+18
8.400000000000006e-07,1557914658.8698013,-156098397577066.94,354.38217653526027,1.0665848920268765e+19
8.500000000000006e-07,1711086712.9972067,-172282319141221.75,355.0290029030989,1.1384906263680287e+19
8.600000000000007e-07,1878231638.7666202,-190065080673152.06,355.67327150501393,1.2147081296418666e+19
8.700000000000007e-07,2060512769.7617922,-209595628329512.03,356.31497473269684,1.29545790824339e+19
8.800000000000007e-07,2259179937.2372866,-231035823624224.0,356.9541061246592,1.3809694241700303e+19
8.900000000000007e-07,2475575038.639147,-254561467647241.22,357.59066031542704,1.4714813394066993e+19
9.000000000000007e-07,2711137901.1989856,-280363397663353.78,358.2246329868452,1.5672417618818052e+19
9.100000000000007e-07,2967412452.2072496,-308648660459243.8,358.85602082139417,1.668508492808059e+19
9.200000000000007e-07,3246053207.811505,-339641767014145.3,359.48482145742696,1.7755492752170584e+19
9.300000000000007e-07,3548832092.4208,-373586033282709.1,360.111033446241,1.8886420434920042e+19
9.400000000000007e-07,3877645601.026984,-410745012097880.1,360.7346562109001,2.0080751736985416e+19
9.500000000000008e-07,4234522316.9778304,-451404021426895.6,361.3556900067306,2.134147734509562e+19
9.600000000000008e-07,4621630797.954554,-495871774444544.25,361.97413588341726,2.267169738515981e+19
9.700000000000007e-07,5041287843.117252,-544482117124854.9,362.58999564862785,2.4074623937118515e+19
9.800000000000006e-07,5495967154.585624,-597595879295043.6,363.2032718331015,2.55535835493889e+19
9.900000000000005e-07,5988308406.618469,-655602845343814.4,363.81396765713623,2.7112019750724272e+19
1.0000000000000004e-06,6521126736.043648,-718923851029837.6,364.42208699841666,2.8753495557280653e+19
1.0100000000000003e-06,7097422667.669806,-788013013095360.6,365.02763436112434,3.0481695972658557e+19
1.0200000000000002e-06,7720392488.582016,-863360098654072.5,365.63061484627667,3.230043047866686e+19
1.03e-06,8393439085.384954,-945493041591626.8,366.23103412324275,3.4213635514537124e+19
1.04e-06,9120183258.6091,-1034980613491142.2,366.82889840238704,3.6225376942301872e+19
1.05e-06,9904475528.637285,-1132435256874664.8,367.4242144087943,3.833985249603808e+19
1.0599999999999998e-06,10750408447.640257,-1238516088834424.2,368.01698935703075,4.0561394212668695e+19
1.0699999999999997e-06,11662329432.130627,-1353932083414667.0,368.6072309268996,4.289447084200982e+19
1.0799999999999996e-06,12644854130.85415,-1479445441395814.0,369.19494724015016,4.53436902337489e+19
1.0899999999999995e-06,13702880342.83539,-1615875156426978.0,369.78014683810153,4.791380169904091e+19
1.0999999999999994e-06,14841602500.481379,-1764100786750486.2,370.36283866014503,5.060969834441461e+19
1.1099999999999993e-06,16066526732.721352,-1925066442062748.8,370.94303202308885,5.34364193756887e+19
1.1199999999999992e-06,17383486523.22293,-2099784995358920.5,371.52073660131276,5.639915236961025e+19
1.1299999999999991e-06,18798658978.77492,-2289342529914280.0,372.0959624076992,5.950323551094229e+19
1.139999999999999e-06,20318581722.964066,-2494903031862680.5,372.6687197753117,6.275415979274695e+19
1.149999999999999e-06,21950170430.29731,-2717713339141379.5,373.23901933979005,6.615757117763225e+19
1.1599999999999988e-06,23700737015.93235,-2959108357881472.5,373.80687202243456,6.971927271775686e+19
1.1699999999999988e-06,25578008496.177246,-3220516557634343.5,374.3722890139529,7.344522663141592e+19
1.1799999999999987e-06,27590146534.904587,-3503465757135248.5,374.9352817588433,7.734155633406445e+19
1.1899999999999986e-06,29745767690.99693,-3809589212616749.5,375.49586194038983,8.141454842167052e+19
1.1999999999999985e-06,32053964381.89802,-4140632020994902.0,376.0540414662463,8.567065460433027e+19
1.2099999999999984e-06,34524326578.288574,-4498457850560919.0,376.60983245458596,9.011649358812001e+19
1.2199999999999983e-06,37166964244.835945,-4885056012119072.0,377.1632472207953,9.475885290320693e+19
1.2299999999999982e-06,39992530541.884285,-5302548883817906.0,377.7142982646919,9.96046906762901e+19
1.239999999999998e-06,43012245802.85524,-5753199703225778.0,378.26299825824543,1.0466113734549619e+20
1.249999999999998e-06,46237922302.01943,-6239420740502518.0,378.80936003378406,1.0993549731591096e+20
1.2599999999999979e-06,49681989827.17561,-6763781866816875.0,379.3533965726664,1.1543525055398727e+20
1.2699999999999978e-06,53357522071.63798,-7329019532452948.0,379.8951209944032,1.2116805411913292e+20
1.2799999999999977e-06,57278263859.782364,-7938046169338251.0,380.4345465462106,1.2714174363084743e+20
1.2899999999999976e-06,61458659220.2395,-8593960033010777.0,380.97168659297915,1.3336433466984587e+20
1.2999999999999975e-06,65913880320.648224,-9300055499320766.0,381.50655460764403,1.3984402411167995e+20
1.3099999999999974e-06,70659857277.6935,-1.0059833831437e+16,382.0391641619401,1.4658919139144026e+20
1.3199999999999973e-06,75713308855.95413,-1.0877014432993494e+16,382.56952891752826,1.5360839969820187e+20
1.3299999999999972e-06,81091774068.87303,-1.1755546603472104e+16,383.09766261747984,1.609103970979556e+20
1.3399999999999971e-06,86813644694.93877,-1.2699621812169414e+16,383.6235790781046,1.6850411758384916e+20
1.349999999999997e-06,92898198721.93245,-1.3713686507339736e+16,384.14729218111074,1.763986820526483e+20
1.359999999999997e-06,99365634731.84778,-1.4802455477342842e+16,384.66881586608446,1.8460339920641566e+20
1.3699999999999968e-06,106237107238.83543,-1.5970925780850136e+16,385.1881641232768,1.9312776637849433e+20
1.3799999999999967e-06,113534762992.25632,-1.7224391263382182e+16,385.7053509866873,2.0198147028297544e+20
1.3899999999999966e-06,121281778256.65172,-1.8568457677655996e+16,386.2203905274327,2.1117438768692327e+20
1.3999999999999965e-06,129502397080.15283,-2.0009058425418176e+16,386.73329684739144,2.2071658600472707e+20
1.4099999999999965e-06,138221970562.55768,-2.1552470938625108e+16,387.2440840731126,2.3061832381404686e+20
1.4199999999999964e-06,147466997134.00095,-2.3205333718006332e+16,387.75276634998085,2.4089005129291933e+20
1.4299999999999963e-06,157265163854.83212,-2.4974664047208388e+16,388.2593578366268,2.5154241057769154e+20
1.4399999999999962e-06,167645388746.9999,-2.6867876400868456e+16,388.7638726995752,2.625862360415516e+20
1.449999999999996e-06,178637864166.9172,-2.8892801565101908e+16,389.2663251081213,2.7403255449353028e+20
1.459999999999996e-06,190274101229.45148,-3.1057706489014148e+16,389.7667292294275,2.8589258529795067e+20
1.4699999999999959e-06,202586975292.35013,-3.3371314885956228e+16,390.26509922383207,2.981777404144095e+20
1.4799999999999958e-06,215610772510.0716,-3.5842828603340924e+16,390.76144924036305,3.1089962435848064e+20
1.4899999999999957e-06,229381237465.64883,-3.848194977991869e+16,391.2557934124482,3.240700340834354e+20
1.4999999999999956e-06,243935621888.86612,-4.129890380947892e+16,391.74814585381597,3.377009587833866e+20
1.5099999999999955e-06,259312734468.68,-4.430446312999705e+16,392.23852065457874,3.5180457961836596e+20
1.5199999999999954e-06,275552991767.4656,-4.7509971857283864e+16,392.72693187749314,3.663932693619556e+20
1.5299999999999953e-06,292698470244.31616,-5.0927371282214904e+16,393.2133935543897,3.8147959197220123e+20
1.5399999999999952e-06,310792959394.2725,-5.4569226250627496e+16,393.69791968276706,3.970763020866423e+20
1.5499999999999951e-06,329882016010.0068,-5.844875244495787e+16,394.1805242225438,4.131963444424012e+20
1.559999999999995e-06,350013019572.13403,-6.257984458667105e+16,394.6612210929622,4.2985285322238185e+20
1.569999999999995e-06,371235228773.9769,-6.697710557848927e+16,395.1400241696391,4.470591513287317e+20
1.5799999999999948e-06,393599839186.2624,-7.165587660536834e+16,395.6169472817579,4.648287495848291e+20
1.5899999999999947e-06,417160042066.88727,-7.663226821309856e+16,396.09200420939675,4.831753458671596e+20
1.5999999999999946e-06,441971084320.551,-8.192319238330792e+16,396.5652086809878,5.0211282416854945e+20
1.6099999999999945e-06,468090329612.72156,-8.754639562354938e+16,397.0365743709034,5.216552535943255e+20
1.6199999999999944e-06,495577320642.0719,-9.352049309101462e+16,397.50611489716346,5.418168872930691e+20
1.6299999999999943e-06,524493842575.2063,-9.986500376828734e+16,397.9738438192608,5.6261216132373355e+20
1.6399999999999943e-06,554903987647.18,-1.0660038670938584e+17,398.4397746360992,5.8405569346098594e+20
1.6499999999999942e-06,586874220931.0135,-1.1374807837417064e+17,398.90392078404034,6.061622819407329e+20
1.659999999999994e-06,620473447279.1051,-1.2133053106900088e+17,399.3662956350565,6.289469041478799e+20
1.669999999999994e-06,655773079439.1597,-1.293712525113216e+17,399.8269124949827,6.524247152484608e+20
1.6799999999999939e-06,692847107346.978,-1.3789484653563605e+17,400.28578460186833,6.76611046768367e+20
1.6899999999999938e-06,731772168598.1838,-1.469270549580776e+17,400.7429251244206,7.015214051209845e+20
1.6999999999999937e-06,772627620100.7152,-1.5649480061655226e+17,401.1983471605394,7.271714700861302e+20
1.7099999999999936e-06,815495610909.6677,-1.6662623160313514e+17,401.65206373593907,7.535770932427597e+20
1.7199999999999935e-06,860461156245.8495,-1.773507667051415e+17,402.10408780285326,7.80754296357988e+20
1.7299999999999934e-06,907612212699.1969,-1.886991420709774e+17,402.554432238821,8.087192697350438e+20
1.7399999999999933e-06,957039754618.0033,-2.0070345911656976e+17,403.0031098455502,8.374883705228409e+20
1.7499999999999932e-06,1008837851684.7274,-2.1339723368785216e+17,403.4501333478556,8.670781209899139e+20
1.759999999999993e-06,1063103747678.9885,-2.2681544649443683e+17,403.895515392669,8.975052067655346e+20
1.769999999999993e-06,1119937940428.2002,-2.4099459482925136e+17,404.33926854811796,9.287864750508718e+20
1.779999999999993e-06,1179444262946.1646,-2.559727455885669e+17,404.7814053026721,9.609389328031192e+20
1.7899999999999928e-06,1241729965759.8352,-2.717895896064421e+17,405.2219380643523,9.939797448955589e+20
1.7999999999999927e-06,1306905800424.3599,-2.8848649731725926e+17,405.66087916000225,1.0279262322565765e+21
1.8099999999999926e-06,1375086104226.4358,-3.0610657575958534e+17,406.0982408346188,1.0627958699906849e+21
1.8199999999999925e-06,1446388886075.9517,-3.246947269342266e+17,406.5340352507396,1.0986062854846442e+21
1.8299999999999924e-06,1520935913585.855,-3.442977075288971e+17,406.968274487885,1.1353752565018072e+21
1.8399999999999923e-06,1598852801340.157,-3.649641900215192e+17,407.40097054205324,1.1731207092678343e+21
1.8499999999999922e-06,1680269100349.9976,-3.86744825173723e+17,407.83213532526537,1.211860716550956e+21
1.8599999999999921e-06,1765318388697.7056,-4.096923059256901e+17,408.2617806651595,1.251613495739971e+21
1.869999999999992e-06,1854138363368.8396,-4.3386143270302976e+17,408.6899183046316,1.2923974069231852e+21
1.879999999999992e-06,1946870933272.251,-4.593091801459176e+17,409.1165599015205,1.3342309509715035e+21
1.8899999999999919e-06,2043662313448.3054,-4.86094765270306e+17,409.541717028337,1.3771327676288902e+21
1.8999999999999918e-06,2144663120465.4922,-5.142797170705044e+17,409.96540117203347,1.421121633613411e+21
1.909999999999992e-06,2250028469005.789,-5.4392794757200877e+17,410.3876237338133,1.4662164607320683e+21
1.9199999999999918e-06,2359918069639.299,-5.751058243429741e+17,410.8083960289788,1.5124362940126229e+21
1.9299999999999917e-06,2474496327788.8345,-6.078822444722641e+17,411.2277292868151,1.5598003098555864e+21
1.9399999999999916e-06,2593932443885.337,-6.423287100215374e+17,411.64563465050935,1.6083278142095423e+21
1.9499999999999915e-06,2718400514715.213,-6.785194049583931e+17,412.0621231771038,1.6580382407729322e+21
