t(s),Adsorbed H on surface 1 (H m-2),solute flux surface 1 (H m-2 s-1),Total T surface 1 (K),0 value at [0] (H m-3)
1e-08,3329.3881644472576,-3094015460.135483,301.50256144731895,2244752775676941.8
2e-08,11664.5680431308,-7322964255.667514,303.4472090296214,5116968400148842.0
3.0000000000000004e-08,28085.149808587124,-13538320314.0851,305.8479604779612,8993869225863462.0
4e-08,58084.55373598097,-23015084050.595245,308.6136515865203,1.443961998720211e+16
5e-08,111487.5023408913,-37771212091.35609,311.6862450074178,2.2327201329065588e+16
6e-08,206036.89582066168,-61059115982.73738,315.02425788608355,3.402684788749433e+16
6.999999999999999e-08,374116.60181310814,-98158722934.92416,318.59599437910526,5.170403315830424e+16
7.999999999999999e-08,675388.4687658038,-157668663544.9791,322.37614194945735,7.879198994879755e+16
8.999999999999999e-08,1220581.8728790611,-253617686944.1859,326.3438409582104,1.207390485255027e+17
9.999999999999998e-08,2216263.3469505836,-408945718265.06433,330.48149455138184,1.861850300385459e+17
1.0999999999999998e-07,4048909.9327678974,-661338802249.9093,334.77398807874704,2.8880194936822675e+17
1.2e-07,7442197.006412776,-1073288025784.6473,339.20815198969444,4.501543015831402e+17
1.3e-07,13749718.52723537,-1750139452089.901,343.77237785521925,7.041096987497869e+17
1.4e-07,25496197.02446135,-2874083837747.8,348.4563351468407,1.103583814404405e+18
1.5000000000000002e-07,47370463.54944262,-4771342484111.323,353.2507568252493,1.7307638466640996e+18
1.6000000000000003e-07,88031589.71660614,-8050428699921.104,358.14727340779683,2.712459962313382e+18
1.7000000000000004e-07,163362950.42218626,-13894452367068.846,363.1382821076896,4.242932245338107e+18
1.8000000000000005e-07,302275282.49290365,-24687214511512.004,368.2168419308301,6.617490161674303e+18
1.9000000000000006e-07,556943806.2316914,-45356264378366.8,373.3765883698247,1.0281432069048924e+19
2.0000000000000007e-07,1020663479.4977293,-86234337225889.14,378.611663153386,1.59005633688921e+19
2.1000000000000008e-07,1858626655.9133892,-169081408458164.38,383.91665574187795,2.4461690031729033e+19
2.200000000000001e-07,3360335253.7258844,-339562441315060.5,389.28655411416236,3.741421741830609e+19
2.300000000000001e-07,6027751963.098335,-692653622423654.5,394.71670299530786,5.686737314349231e+19
2.400000000000001e-07,10721692865.537163,-1423426782331757.8,400.20276811005243,8.586167737592318e+19
2.500000000000001e-07,18901831700.081863,-2926662772271135.5,405.7407053656334,1.2873812667151132e+20
2.600000000000001e-07,33015080184.44287,-5988564204369824.0,411.3267341044095,1.9163410034848206e+20
2.700000000000001e-07,57115851508.72414,-1.2148795133079746e+16,416.95731374503595,2.8314111767166937e+20
2.800000000000001e-07,97843586781.37317,-2.437144309882851e+16,422.62912326691173,4.1516603226266114e+20
2.9000000000000014e-07,165942864986.951,-4.826557435938349e+16,428.3390430974469,6.04043670531856e+20
3.0000000000000015e-07,278595698453.86414,-9.426504571650646e+16,434.0841390433643,8.719547698525834e+20
3.1000000000000016e-07,462951967959.223,-1.8145114003450576e+17,439.86164797149246,1.2487076567362332e+21
3.2000000000000017e-07,761401586728.7639,-3.441361350708061e+17,445.6689649954844,1.7739445962747523e+21
3.300000000000002e-07,1239341473155.292,-6.430005358932274e+17,451.50363196569776,2.4998332348213074e+21
3.400000000000002e-07,1996463377048.0508,-1.1836012623412815e+18,457.36332709236586,3.494299166991517e+21
3.500000000000002e-07,3182937178063.134,-2.1465896655040049e+18,463.24585555891304,4.844846681824802e+21
3.600000000000002e-07,5022300369810.046,-3.8361869301548995e+18,469.14914100411715,6.663000851844841e+21
3.700000000000002e-07,7843398873424.793,-6.756596464929464e+18,475.0712177698046,9.089385591511678e+21
3.800000000000002e-07,12124365937594.355,-1.1730369347486788e+19,481.010223825647,1.2299430211864773e+22
3.9000000000000024e-07,18552380919632.11,-2.007859758552785e+19,486.9643942950232,1.6509673391809888e+22
4.0000000000000025e-07,28103821718408.727,-3.3890528997534392e+19,492.9320555162795,2.198461143197028e+22
4.1000000000000026e-07,42150415028489.0,-5.642010986498274e+19,498.9116195824443,2.9044021048822863e+22
4.2000000000000027e-07,62598098603321.84,-9.265936161601377e+19,504.90157930982673,3.807068011554975e+22
4.300000000000003e-07,92066543099363.4,-1.5015360409644968e+20,510.9005035921832,4.951841669782294e+22
4.400000000000003e-07,134118647775664.72,-2.4014145740841743e+20,516.9070331024752,6.3920440316171855e+22
4.500000000000003e-07,193550844333339.3,-3.791232570379309e+20,522.9198763088033,8.189795024771035e+22
4.600000000000003e-07,276756749469044.56,-5.909848295432838e+20,528.9378057750304,1.0416907143993006e+23
4.700000000000003e-07,392178513239423.06,-9.098285102650415e+20,534.9596547199883,1.315582098040231e+23
4.800000000000003e-07,550863105914151.9,-1.3836941579385108e+21,540.984313812092,1.6500611083208994e+23
4.900000000000003e-07,767141932279940.0,-2.0793748660728698e+21,547.0107281787298,2.0558066202107168e+23
5.000000000000003e-07,1059456827834832.9,-3.088570364891992e+21,553.0378946120103,2.544888733540935e+23
5.100000000000003e-07,1451357803821563.8,-4.535646467922289e+21,559.064858954388,3.130902036850484e+23
5.200000000000003e-07,1972702168685617.8,-6.587301882908433e+21,565.0907136493802,3.829114478446348e+23
5.300000000000003e-07,2661088833346409.0,-9.46447412444021e+21,571.1145954440847,4.6566329080285996e+23
5.400000000000003e-07,3563566107917831.0,-1.3456845697233384e+22,577.1356832315172,5.6325850546319907e+23
5.500000000000003e-07,4738655875888094.0,-1.8940338259232414e+22,583.153196021952,6.778316158788637e+23
5.600000000000004e-07,6258741441273364.0,-2.639800350287447e+22,589.1663910334752,8.117596826761901e+23
5.700000000000004e-07,8212870275475151.0,-3.6444731026764097e+22,595.1745618928738,9.676837066280925e+23
5.800000000000004e-07,1.0710025970172822e+16,-4.985618980226058e+22,601.1770369387976,1.1485299998099744e+24
5.900000000000004e-07,1.3882925482404508e+16,-6.760239318686155e+22,607.173177619853,1.35753074452078e+24
6.000000000000004e-07,1.7892397689594646e+16,-9.088621756637436e+22,613.1623769809369,1.598242842422126e+24
6.100000000000004e-07,2.2932396664270388e+16,-1.2118709851950207e+23,619.1440582317007,1.8745640362766573e+24
6.200000000000004e-07,2.9235697036603456e+16,-1.603099594456278e+23,625.1176733915511,2.1907451446445863e+24
6.300000000000004e-07,3.708030816832649e+16,-2.1043917560725987e+23,631.0827020060651,2.5513970641776905e+24
6.400000000000004e-07,4.67966270896256e+16,-2.7419701708693433e+23,637.03864993012,2.961490944902549e+24
6.500000000000004e-07,5.877532529497086e+16,-3.547055188029869e+23,642.9850481734129,3.4263496170689324e+24
6.600000000000005e-07,7.347592910454634e+16,-4.5565006312790535e+23,648.9214518043989,3.95162793896671e+24
6.700000000000005e-07,9.143600440314702e+16,-5.813420994030132e+23,654.8474389089771,4.543279251384341e+24
6.800000000000005e-07,1.1328079070690118e+17,-7.367773388336845e+23,660.762609600546,5.207504590384548e+24
6.900000000000005e-07,1.3973304286327186e+17,-9.276844419457979e+23,666.6665850782994,5.950680771882945e+24
7.000000000000005e-07,1.7162272738301552e+17,-1.1605576777006127e+24,672.559006730872,6.779262994229447e+24
7.100000000000005e-07,2.0989608102389533e+17,-1.4426653476611845e+24,678.4395352826555,7.699657321694223e+24
7.200000000000005e-07,2.556233697086466e+17,-1.7820240816625674e+24,684.3078499802974,8.718058472687218e+24
7.300000000000005e-07,3.1000448666634765e+17,-2.1873276771637757e+24,690.1636478170788,9.840248954941576e+24
7.400000000000005e-07,3.74371304642845e+17,-2.6678183615677377e+24,696.006642793021,1.1071357028512434e+25
7.500000000000005e-07,4.501854593435444e+17,-3.233088740626444e+24,701.8365652087289,1.2415573526704883e+25
7.600000000000006e-07,5.3903000980668224e+17,-3.8928049153541727e+24,707.6531609911074,1.387583149187385e+25
7.700000000000006e-07,6.425932265094538e+17,-4.656346003451529e+24,713.456191049219,1.5453458039965382e+25
7.800000000000006e-07,7.626426411513324e+17,-5.532363160412077e+24,719.2454306586613,1.714781475856554e+25
7.900000000000006e-07,9.009875041234504e+17,-6.528272343639111e+24,725.0206688729522,1.8955950758545668e+25
8.000000000000006e-07,1.059427991915855e+18,-7.649708970041569e+24,730.7817079605085,2.0872300161871493e+25
8.100000000000006e-07,1.2396899379848732e+18,-8.89998773580973e+24,736.5283628658908,2.288846160538269e+25
8.200000000000006e-07,1.4433445618636157e+18,-1.0279624497499256e+25,742.2604606940761,2.499309904861271e+25
8.300000000000006e-07,1.671713650487544e+18,-1.1785985628340235e+25,747.9778402165921,2.7171998470511313e+25
8.400000000000006e-07,1.9257618777576218e+18,-1.341312981792381e+25,753.6803513984216,2.940830223161696e+25
8.500000000000006e-07,2.205979379221464e+18,-1.5151894983653305e+25,759.36785494465,3.1682921822204823e+25
8.600000000000007e-07,2.5122592608498284e+18,-1.6990258197102094e+25,765.0402218658919,3.397510263346885e+25
8.700000000000007e-07,2.8437763543444285e+18,-1.891396192636275e+25,770.6973330615883,3.626308613288507e+25
8.800000000000007e-07,3.1988751965273083e+18,-2.090736133420231e+25,776.3390789203202,3.852479224561235e+25
8.900000000000007e-07,3.5749768720531676e+18,-2.295441273964735e+25,781.9653589363328,4.073843505675943e+25
9.000000000000007e-07,3.968515929394733e+18,-2.503970031177033e+25,787.5760813415116,4.288299349961817e+25
9.100000000000007e-07,4.374919827764367e+18,-2.7149391631395702e+25,793.1711627520925,4.493848685815162e+25
9.200000000000007e-07,4.788643831937383e+18,-2.92720236895898e+25,798.7505278294317,4.688604892932695e+25
9.300000000000007e-07,5.203273225002577e+18,-3.1399045646981212e+25,804.314108954193,4.870784589843048e+25
9.400000000000007e-07,5.611701309906875e+18,-3.3525076929280195e+25,809.8618459133506,5.038692938158502e+25
9.500000000000008e-07,6.006385249903684e+18,-3.5647872278013534e+25,815.3936855994349,5.190714485940761e+25
9.600000000000008e-07,6.379672299778035e+18,-3.776801433695312e+25,820.9095817214785,5.325321620227116e+25
9.700000000000007e-07,6.724177369745719e+18,-3.988837724558838e+25,826.4094945271521,5.4411093823874095e+25
9.800000000000006e-07,7.033181267310517e+18,-4.201342193872667e+25,831.8933905356013,5.536859003639972e+25
9.900000000000005e-07,7.301010319262368e+18,-4.414839654266347e+25,837.3612422805267,5.611624306349999e+25
1.0000000000000004e-06,7.523355288701447e+18,-4.629852340305363e+25,842.8130280630667,5.664827216648062e+25
1.0100000000000003e-06,7.697492333669999e+18,-4.84682558963573e+25,848.2487317140697,5.6963435131211925e+25
1.0200000000000002e-06,7.822380964478684e+18,-5.066068021057376e+25,853.6683423653609,5.706559537157622e+25
1.03e-06,7.898631142085613e+18,-5.287711786738391e+25,859.071854229628,5.696385449669283e+25
1.04e-06,7.928349951914419e+18,-5.511695544341382e+25,864.4592663885704,5.667219458305865e+25
1.05e-06,7.914893632233465e+18,-5.737769425727628e+25,869.8305825889715,5.6208675564692875e+25
1.0599999999999998e-06,7.862560176696675e+18,-5.965518249808362e+25,875.185811046373,5.559431660003134e+25
1.0699999999999997e-06,7.776260160580574e+18,-6.19439722862732e+25,880.5249642560414,5.485183418586926e+25
1.0799999999999996e-06,7.661199608675833e+18,-6.423773780866941e+25,885.8480588109353,5.400440834000819e+25
1.0899999999999995e-06,7.522600639663739e+18,-6.652969686534816e+25,891.1551152263954,5.307461087936788e+25
1.0999999999999994e-06,7.365475726095431e+18,-6.881299257178419e+25,896.4461577712872,5.208357470502015e+25
1.1099999999999993e-06,7.194461849721426e+18,-7.108100921374246e+25,901.7212143053466,5.105042818163956e+25
1.1199999999999992e-06,7.013713055590354e+18,-7.332761194391367e+25,906.9803161224834,4.999197646860649e+25
1.1299999999999991e-06,6.82684457103642e+18,-7.55473116637158e+25,912.2234977998115,4.892258674285986e+25
1.139999999999999e-06,6.636918761327605e+18,-7.773536347447752e+25,917.4507970521862,4.7854225281663614e+25
1.149999999999999e-06,6.446462332227387e+18,-7.98878102017552e+25,922.6622545920346,4.679659675300009e+25
1.1599999999999988e-06,6.257504772069777e+18,-8.200148291894474e+25,927.85791399428,4.575734458228525e+25
1.1699999999999988e-06,6.071629460832119e+18,-8.407396933005789e+25,933.0378215661655,4.474228169666337e+25
1.1799999999999987e-06,5.89003067034125e+18,-8.610355923075861e+25,938.2020262217914,4.375563060940095e+25
1.1899999999999986e-06,5.713571487847863e+18,-8.808917460757483e+25,943.3505793611916,4.280025944405252e+25
1.1999999999999985e-06,5.542839302185104e+18,-9.003029051214936e+25,948.4835347537784,4.187790587208772e+25
1.2099999999999984e-06,5.37819679757279e+18,-9.192685171240626e+25,953.6009484259921,4.098938437525067e+25
1.2199999999999983e-06,5.219827384705409e+18,-9.377918922013722e+25,958.7028785530036,4.013477428681426e+25
1.2299999999999982e-06,5.067774690849839e+18,-9.558794003403539e+25,963.7893853543184,3.931358724934413e+25
1.239999999999998e-06,4.92197618304215e+18,-9.735397273787993e+25,968.8605309931392,3.8524913468986254e+25
1.249999999999998e-06,4.782291270182804e+18,-9.907832090677303e+25,973.9163794793519,3.776754671665026e+25
1.2599999999999979e-06,4.648524375294269e+18,-1.0076212558808731e+26,978.9569965760035,3.704008855808655e+25
1.2699999999999978e-06,4.520443532621424e+18,-1.0240658745615007e+26,983.9824497091432,3.6341032820855493e+25
1.2799999999999977e-06,4.3977950779918003e+18,-1.0401292862614944e+26,988.9928078809098,3.5668831800518157e+25
1.2899999999999976e-06,4.280293642937833e+18,-1.0558656549463397e+26,993.993730069094,3.502253245721896e+25
1.2999999999999975e-06,4.1676836343504543e+18,-1.0712491849918436e+26,998.979786896069,3.4400085072742646e+25
1.3099999999999974e-06,4.0597084819530296e+18,-1.0862860639721792e+26,1003.9508420177209,3.379992830574748e+25
1.3199999999999973e-06,3.95611792219089e+18,-1.1009859264996325e+26,1008.9069605399648,3.322070318927579e+25
1.3299999999999972e-06,3.8566720576016404e+18,-1.115358913625624e+26,1013.8482248604728,3.266116826190587e+25
1.3399999999999971e-06,3.761143388961607e+18,-1.129414919836437e+26,1018.7747203277024,3.2120177336180026e+25
1.349999999999997e-06,3.6693177145805256e+18,-1.1431633874232306e+26,1023.6865328564662,3.1596671861398437e+25
1.359999999999997e-06,3.5809943237541647e+18,-1.1566132712175436e+26,1028.5837484726508,3.108967574384278e+25
1.3699999999999968e-06,3.495985732697885e+18,-1.1697730570371989e+26,1033.46645327216,3.059828996228989e+25
1.3799999999999967e-06,3.414117130845206e+18,-1.1826507962657747e+26,1038.334733468443,3.0121686734808166e+25
1.3899999999999966e-06,3.3352256577413217e+18,-1.1952541437889581e+26,1043.1886754476673,2.965910350603945e+25
1.3999999999999965e-06,3.259159596528192e+18,-1.2075903945988906e+26,1048.0283658119338,2.920983704205973e+25
1.4099999999999965e-06,3.1857775436576435e+18,-1.2196665172769183e+26,1052.8538914077353,2.8773237833346522e+25
1.4199999999999964e-06,3.114947594170992e+18,-1.2314891837672062e+26,1057.665339341366,2.8348704919095584e+25
1.4299999999999963e-06,3.0465465666807716e+18,-1.2430647954223304e+26,1062.4627969838505,2.7935681180656553e+25
1.4399999999999962e-06,2.980459281235591e+18,-1.2543995055825758e+26,1067.24635196778,2.7533649108568197e+25
1.449999999999996e-06,2.916577895706648e+18,-1.2654992390765724e+26,1072.0160921780293,2.7142127021755313e+25
1.459999999999996e-06,2.854801301414264e+18,-1.2763697090671932e+26,1076.7721057379044,2.6760665703752313e+25
1.4699999999999959e-06,2.7950345757189473e+18,-1.2870164316522605e+26,1081.5144809919236,2.638884541513085e+25
1.4799999999999958e-06,2.7371884876592256e+18,-1.2974447385893918e+26,1086.243306486159,2.6026273240526477e+25
1.4899999999999957e-06,2.6811790519791524e+18,-1.3076597884636148e+26,1090.9586709468454,2.567258073064955e+25
1.4999999999999956e-06,2.626927126719555e+18,-1.3176665765648847e+26,1095.6606632578107,2.5327421803038486e+25
1.5099999999999955e-06,2.5743580497139277e+18,-1.3274699436948395e+26,1100.3493724371488,2.499047086921134e+25
1.5199999999999954e-06,2.523401309674102e+18,-1.3370745840807037e+26,1105.0248876134644,2.466142115979807e+25
1.5299999999999953e-06,2.4739902479713014e+18,-1.3464850525394656e+26,1109.687298001944,2.4339983222926534e+25
1.5399999999999952e-06,2.4260617876535593e+18,-1.3557057710071306e+26,1114.3366928804537,2.4025883574465688e+25
1.5499999999999951e-06,2.379556186656812e+18,-1.3647410345251447e+26,1118.9731615658154,2.371886348166577e+25
1.559999999999995e-06,2.334416812547312e+18,-1.3735950167581473e+26,1123.5967933903848,2.3418677864279427e+25
1.569999999999995e-06,2.29058993647103e+18,-1.3822717751031334e+26,1128.207677679022,2.312509429943559e+25
1.5799999999999948e-06,2.248024544281249e+18,-1.3907752554390497e+26,1132.8059037265243,2.2837892118405334e+25
1.5899999999999947e-06,2.206672163071235e+18,-1.3991092965573282e+26,1137.3915607755796,2.2556861584989744e+25
1.5999999999999946e-06,2.1664867015590907e+18,-1.4072776343070501e+26,1141.9647379952776,2.228180314661389e+25
1.6099999999999945e-06,2.1274243029610363e+18,-1.4152839054831833e+26,1146.5255244602101,2.2012526750362225e+25
1.6199999999999944e-06,2.0894432091518986e+18,-1.423131651482117e+26,1151.0740091301802,2.1748851217173505e+25
1.6299999999999943e-06,2.0525036350514586e+18,-1.430824321745382e+26,1155.6102808305363,2.1490603668251064e+25
1.6399999999999943e-06,2.0165676522959585e+18,-1.4383652770096896e+26,1160.1344282331365,2.1237618998463402e+25
1.6499999999999942e-06,1.981599081358498e+18,-1.4457577923792744e+26,1164.6465398379491,2.098973939212684e+25
1.659999999999994e-06,1.947563391372664e+18,-1.453005060234626e+26,1169.1467039552876,2.074681387709391e+25
1.669999999999994e-06,1.9144276069927516e+18,-1.4601101929902049e+26,1173.635008688678,2.0508697913531216e+25
1.6799999999999939e-06,1.8821602216929482e+18,-1.467076225712412e+26,1178.1115419183525,2.0275253014169943e+25
1.6899999999999938e-06,1.8507311169684634e+18,-1.4739061186079952e+26,1182.5763912853618,2.004634639315982e+25
1.6999999999999937e-06,1.820111486954879e+18,-1.4806027593920786e+26,1187.0296441762966,1.982185064096137e+25
1.7099999999999936e-06,1.7902737680290757e+18,-1.4871689655441985e+26,1191.4713877086106,1.960164342297774e+25
1.7199999999999935e-06,1.761191572996783e+18,-1.4936074864599519e+26,1195.9017087165282,1.9385607199861683e+25
1.7299999999999934e-06,1.7328396295088172e+18,-1.499921005505254e+26,1200.3206937375326,1.9173628967640492e+25
1.7399999999999933e-06,1.705193722381038e+18,-1.5061121419795573e+26,1204.7284289994122,1.8965600015983846e+25
1.7499999999999932e-06,1.6782306395224602e+18,-1.5121834529939452e+26,1209.1250004078634,1.8761415703103067e+25
1.759999999999993e-06,1.6519281212022894e+18,-1.5181374352694318e+26,1213.5104935346258,1.8560975245913234e+25
1.769999999999993e-06,1.6262648124102413e+18,-1.5239765268604978e+26,1217.8849936061436,1.8364181524219484e+25
1.779999999999993e-06,1.601220218085718e+18,-1.5297031088084037e+26,1222.2485854927365,1.817094089780334e+25
1.7899999999999928e-06,1.57677466101046e+18,-1.5353195067285258e+26,1226.601353698268,1.7981163035387409e+25
1.7999999999999927e-06,1.552909242176556e+18,-1.5408279923356333e+26,1230.9433823502948,1.7794760754550233e+25
1.8099999999999926e-06,1.5296058034571863e+18,-1.5462307849107202e+26,1235.2747551906873,1.7611649871744655e+25
1.8199999999999925e-06,1.5068468924215695e+18,-1.551530052712751e+26,1239.5955555667067,1.7431749061649053e+25
1.8299999999999924e-06,1.4846157291483238e+18,-1.5567279143384157e+26,1243.9058664225229,1.7254979725146852e+25
1.8399999999999923e-06,1.462896174903011e+18,-1.5618264400328093e+26,1248.2057702911634,1.7081265865291623e+25
1.8499999999999922e-06,1.4416727025561452e+18,-1.5668276529536773e+26,1252.4953492868808,1.6910533970668927e+25
1.8599999999999921e-06,1.4209303686275428e+18,-1.5717335303917413e+26,1256.7746850979217,1.6742712905616678e+25
1.869999999999992e-06,1.4006547868515663e+18,-1.576546004949402e+26,1261.0438589796893,1.6577733806810115e+25
