t(s),Adsorbed H on surface 1 (H m-2),solute flux surface 1 (H m-2 s-1),Total T surface 1 (K),0 value at [0] (H m-3)
1e-06,551743850.3665153,-34631611468913.12,300.50203160646475,2096578922225371.5
2.05e-06,1795774737.9088879,-404790326818684.0,301.2915702853401,4411900874005457.5
3.1525e-06,3740921694.3664627,-803833909340477.8,302.3258562990849,6399007105255141.0
4.310125e-06,6573199135.979398,-1270588746761056.8,303.589696415785,8594631219232902.0
5.52563125e-06,10593850389.041,-1853711902641408.5,305.0780009662591,1.1194418173248768e+16
6.8019128125e-06,16270485652.735031,-2620316526309232.0,306.79062346195843,1.4426567780219904e+16
8.142008453125e-06,24328133654.333298,-3669908411101131.5,308.73024846133745,1.859729042255895e+16
9.54910887578125e-06,35903324478.0684,-5156478426795672.0,310.9013410254881,2.4142437738741536e+16
1.1026564319570314e-05,52806436830.23778,-7325339395094892.0,313.3095490004893,3.170376496944507e+16
1.2577892535548829e-05,77974359233.47023,-1.0576285793982972e+16,315.9613248383848,4.224757549792741e+16
1.4206787162326272e-05,116263670183.17026,-1.557397680322629e+16,318.8636633942353,5.725398872424151e+16
1.5917126520442588e-05,175862747509.40366,-2.3443909555153544e+16,322.0239045834671,7.902354660678389e+16
1.771298284646472e-05,270845433123.64362,-3.612528711365383e+16,325.4495735903691,1.111796196017657e+17
1.9598631988787957e-05,425859335922.0588,-5.701468079957557e+16,329.1482431716842,1.5949955662071286e+17
2.1578563588227356e-05,684821265299.0419,-9.214294512797931e+16,333.1255550610871,2.332777444531198e+17
2.3657491767638723e-05,1127395890897.0442,-1.5240204972908102e+17,337.3903273833905,3.476863592216429e+17
2.584036635602066e-05,1900433604606.1416,-2.577077233320978e+17,341.9497177497122,5.27689655238215e+17
2.8132384673821694e-05,3278704624038.8325,-4.449168605071875e+17,346.81027310825783,8.147259149574692e+17
3.053900390751278e-05,5783377080920.624,-7.829687243817414e+17,351.97801452577283,1.2781075282933737e+18
3.306595410288842e-05,10415067229243.238,-1.4019947518083658e+18,357.45834282788707,2.034522156625411e+18
3.571925180803284e-05,19115367988976.773,-2.549490701868463e+18,363.2559404544496,3.281436542121225e+18
3.850521439843448e-05,35685280583564.805,-4.698831204523018e+18,369.3746788404831,5.354223329223945e+18
4.143047511835621e-05,67619632430889.31,-8.759221755290675e+18,375.8175336935609,8.823971405374737e+18
4.4501998874274025e-05,129773953273502.38,-1.6480057264886129e+19,382.58650997780325,1.4663478214227534e+19
4.772709881798773e-05,251685247653298.9,-3.122575892469059e+19,389.6825784009107,2.4527176415524835e+19
5.111345375888712e-05,492116514499279.06,-5.944321066510996e+19,397.1056251898112,4.121538346487857e+19
5.4669126446831475e-05,967654010032554.5,-1.1338283266745082e+20,404.85441687912135,6.94212998434292e+19
5.8402582769173055e-05,1908251795610235.0,-2.160420487039917e+20,412.93561174169645,1.1690144257857998e+20
6.232271190763171e-05,3759392045635556.5,-4.090183658040467e+20,421.3372580444624,1.9589915943119238e+20
6.64388475030133e-05,7357665291673146.0,-7.633434669326243e+20,430.0542548453075,3.244038574405851e+20
7.076078987816397e-05,1.4189799945727736e+16,-1.3876382246979652e+21,439.080946178434,5.251987743397489e+20
7.529882937207217e-05,2.6679599955933344e+16,-2.4190412894504406e+21,448.4106642327869,8.19676693040032e+20
8.006377084067578e-05,4.8367549810780664e+16,-3.9853873715442803e+21,458.03578841235145,1.217174635015229e+21
8.506695938270958e-05,8.393150682574867e+16,-6.165443374945755e+21,467.9478514621624,1.7104798370197385e+21
9.032030735184505e-05,1.392599412295246e+17,-8.999559265430934e+21,478.1376687247855,2.2865052301822612e+21
9.583632271943731e-05,2.2181655518355072e+17,-1.2541575067858475e+22,488.595487360845,2.9408776050093835e+21
0.00010162813885540918,3.412295438511296e+17,-1.6888908720183353e+22,499.3111539752006,3.6808508852373915e+21
0.00010770954579817965,5.0987819014766106e+17,-2.2175698942155026e+22,510.27429864482446,4.5192507678935844e+21
0.00011409502308808864,7.433258648769906e+17,-2.855915189400422e+22,521.4745325882513,5.468889595110103e+21
0.00012079977424249307,1.060478404631292e+18,-3.6212020805831653e+22,532.9016559240387,6.539802032118128e+21
0.00012783976295461773,1.4833282126419602e+18,-4.53146040691569e+22,544.545871214247,7.738732079775611e+21
0.00013523175110234862,2.0359067681177964e+18,-5.600850419468623e+22,556.3766477874093,9.067951691083403e+21
0.00014299333865746606,2.744009554425843e+18,-6.848247679905878e+22,568.4068985775419,1.0548190597904211e+22
0.00015114300559033938,3.6343627826308193e+18,-8.28790131614362e+22,580.6297568556179,1.2223165530240381e+22
0.00015970015586985636,4.734692037764831e+18,-9.93222031833618e+22,593.0390309132534,1.4188712040352325e+22
0.0001686851636633492,6.074398554875304e+18,-1.1792149650688462e+23,605.6298772582983,1.6632266792899229e+22
0.00017811942184651667,7.685228330874461e+18,-1.3876457981178642e+23,618.3989638607516,1.9912318251810427e+22
0.00018802539293884252,9.600853130189906e+18,-1.618879778762235e+23,631.3445719515662,2.4763279567765004e+22
0.00019802539293884252,1.1757815271600415e+19,-1.8627620065905708e+23,643.9755755089127,3.2516669123813735e+22
0.00020802539293884252,1.4117124829936507e+19,-2.1107754512526256e+23,656.2008111748037,4.688166793487745e+22
0.00021802539293884252,1.6570948737854165e+19,-2.3436434532878156e+23,668.0500131960223,8.084092901900333e+22
0.00022802539293884251,1.8041429734093914e+19,-2.5583228502142257e+23,679.5506461346368,1.411881548379411e+23
0.00023754920246265204,1.8234700470932986e+19,-2.840109163492118e+23,690.2088001372746,1.68597176818358e+23
0.00024754920246265207,1.8190992601006029e+19,-3.167934339363467e+23,701.0989432731246,1.7598742807096444e+23
0.0002575492024626521,1.8113738870409366e+19,-3.487584096345886e+23,711.592920368283,1.7628750216265044e+23
0.0002675492024626521,1.8028101491256758e+19,-3.7971816867347034e+23,721.7461624572359,1.7398665692613705e+23
0.00027754920246265215,1.7937287500004887e+19,-4.1004845316597005e+23,731.616691690976,1.705490339107463e+23
0.0002875492024626522,1.7841542431686623e+19,-4.399376776125442e+23,741.2353252872397,1.6650116409126323e+23
0.0002975492024626522,1.774041819225707e+19,-4.694759487433624e+23,750.6245989368663,1.620672565040657e+23
0.0003075492024626522,1.7633133290763547e+19,-4.9870007095625945e+23,759.8025454933555,1.5735161388362665e+23
0.00031754920246265225,1.7518628910639366e+19,-5.2762001300844264e+23,768.7842331633159,1.524030608783676e+23
0.0003275492024626523,1.739553943280823e+19,-5.562330369757758e+23,777.5825807920487,1.4724140918746913e+23
0.0003375492024626523,1.7262113999637459e+19,-5.845310349795917e+23,786.2088580195632,1.4186935990848846e+23
0.00034754920246265233,1.7116088646915127e+19,-6.125042822333457e+23,794.6730215256476,1.3627799058891894e+23
0.00035754920246265236,1.6954493480061956e+19,-6.401432930233348e+23,802.9839552662723,1.3044916680611935e+23
0.0003675492024626524,1.677336712154316e+19,-6.674396480822566e+23,811.1496495581797,1.2435652736567318e+23
0.0003775492024626524,1.6567338919550644e+19,-6.943862068813693e+23,819.1773387950761,1.1796622874056532e+23
0.00038754920246265244,1.6329037366196382e+19,-7.209768029092966e+23,827.073609916595,1.112390187587378e+23
0.00039754920246265246,1.6048183197471728e+19,-7.473091219996929e+23,834.8539333375736,1.0414410016739781e+23
0.0004075492024626525,1.5711209631135398e+19,-7.732578712897528e+23,842.5139417131672,9.664877667542421e+22
0.0004175492024626525,1.5301267281058423e+19,-7.98809141090381e+23,850.0588026738002,8.879103576460611e+22
0.00042754920246265254,1.4801657834678569e+19,-8.239339908226738e+23,857.4932584415701,8.072890903275192e+22
0.00043754920246265257,1.4204797290543469e+19,-8.485874451042011e+23,864.8217122665762,7.279433207818493e+22
0.0004475492024626526,1.3523291743587402e+19,-8.727261169473989e+23,872.0482642363925,6.543694625902821e+22
0.0004575492024626526,1.2790842434384493e+19,-8.96339101091506e+23,879.1767408386818,5.9030006210844e+22
0.00046754920246265265,1.2048417170406767e+19,-9.194561347374323e+23,886.2107207509206,5.3714976587412295e+22
0.00047754920246265267,1.1328885703263605e+19,-9.421239490733752e+23,893.1535575186432,4.942144691436874e+22
0.0004875492024626527,1.0651297688923343e+19,-9.643816361224796e+23,900.008399569763,4.597844974422909e+22
0.0004975492024626527,1.0023148927359281e+19,-9.862525719055553e+23,906.7782079349125,4.320294919172525e+22
0.0005075492024626527,9.444922388068923e+18,-1.0077472952853721e+24,913.4657719903433,4.093906132616054e+22
0.0005175492024626527,8.913743034875567e+18,-1.0288688013610426e+24,920.073723490118,3.906614346503221e+22
0.0005275492024626527,8.425539434781947e+18,-1.0496166024841847e+24,926.604549114866,3.7494416506645383e+22
0.0005375492024626528,7.976096129343599e+18,-1.0699891004394212e+24,933.0606017287272,3.615777503364384e+22
0.0005475492024626528,7.561480155469781e+18,-1.089984764504701e+24,939.4441105073247,3.5007333762339493e+22
0.0005575492024626528,7.178169013612264e+18,-1.1096026316759818e+24,945.7571900758472,3.4006517825005647e+22
0.0005675492024626529,6.823055130604529e+18,-1.1288424667886315e+24,952.001848775976,3.312756008288382e+22
0.0005775492024626529,6.493407650044063e+18,-1.1477047680986289e+24,958.1799961634658,3.234905830443187e+22
0.0005875492024626529,6.186824662013789e+18,-1.1661907107308155e+24,964.2934498240248,3.165427506199662e+22
0.0005975492024626529,5.901187750282739e+18,-1.1843020707812328e+24,970.3439415840479,3.1029944541123283e+22
0.000607549202462653,5.634622220880381e+18,-1.2020411484310595e+24,976.3331231813612,3.0465423891282224e+22
0.000617549202462653,5.385463306113271e+18,-1.2194106970990458e+24,982.2625714539741,2.995208044709447e+22
0.000627549202462653,5.152227695286462e+18,-1.236413860636787e+24,988.1337930968158,2.9482842473848973e+22
0.000637549202462653,4.933589561649863e+18,-1.253054118501604e+24,993.9482290303047,2.9051864963496842e+22
0.0006475492024626531,4.728360315245028e+18,-1.2693352380959668e+24,999.7072584198937,2.8654277608109077e+22
0.0006575492024626531,4.535471429917488e+18,-1.2852612332619885e+24,1005.4122023801855,2.828599233489391e+22
0.0006675492024626531,4.353959810447134e+18,-1.3008363279716005e+24,1011.0643273941672,2.7943554610660765e+22
0.0006775492024626531,4.182956169046909e+18,-1.3160649243288704e+24,1016.6648484742846,2.7624028470776363e+22
0.0006875492024626532,4.0216706792390277e+18,-1.3309515751805662e+24,1022.2149320889789,2.7324900478436753e+22
0.0006975492024626532,3.869388881569932e+18,-1.345500956352731e+24,1027.7156988760323,2.7044013198749693e+22
0.0007075492024626532,3.7254604355306506e+18,-1.359717846058209e+24,1033.1682261617739,2.6779503019105788e+22
0.0007175492024626532,3.5892926711403546e+18,-1.373607103952242e+24,1038.5735503027977,2.652975333658735e+22
0.0007275492024626533,3.460344544562958e+18,-1.3871736523690152e+24,1043.9326688655992,2.6293356147307438e+22
0.0007375492024626533,3.338121284747899e+18,-1.4004224592045992e+24,1049.2465426577337,2.606908043676334e+22
0.0007475492024626533,3.222169681775698e+18,-1.413358522199363e+24,1054.5160976231966,2.585584606985675e+22
0.0007575492024626534,3.112073934003326e+18,-1.42598685442661e+24,1059.742226612121,2.5652702104346685e+22
0.0007675492024626534,3.0074519785309527e+18,-1.4383124708592767e+24,1064.9257910360648,2.545880867917831e+22
0.0007775492024626534,2.907952240493087e+18,-1.45034037588766e+24,1070.067622417167,2.527342180922008e+22
0.0007875492024626534,2.8132507463647e+18,-1.4620755516984128e+24,1075.1685238396826,2.5095880557301512e+22
0.0007975492024626535,2.723048554599929e+18,-1.4735229474393912e+24,1080.2292713113093,2.492559616185184e+22
0.0008075492024626535,2.637069463701962e+18,-1.4846874691120356e+24,1085.2506150411532,2.4762042781987523e+22
0.0008175492024626535,2.5550579634992645e+18,-1.4955739701476707e+24,1090.2332806407278,2.4604749587277337e+22
0.0008275492024626535,2.4767774001804897e+18,-1.506187242627243e+24,1095.1779702532215,2.4453293970801195e+22
0.0008375492024626536,2.4020083296624543e+18,-1.5165320091227662e+24,1100.0853636165523,2.430729570504379e+22
0.0008475492024626536,2.330547037278661e+18,-1.5266129151419775e+24,1104.9561190650002,2.416641189263642e+22
0.0008575492024626536,2.2622042046792205e+18,-1.536434522155781e+24,1109.7908744731767,2.4030332589946526e+22
0.0008675492024626536,2.1968037072958351e+18,-1.5460013012128662e+24,1114.590248147373,2.3898777002767676e+22
0.0008775492024626537,2.1341815278553116e+18,-1.5553176271183323e+24,1119.3548396665308,2.377149017001494e+22
0.0008875492024626537,2.0741847732250424e+18,-1.5643877731901293e+24,1124.0852306775648,2.364824006559031e+22
0.0008975492024626537,2.0166707834475139e+18,-1.5732159065815642e+24,1128.7819856473725,2.352881505958182e+22
0.0009075492024626537,1.9615063231670766e+18,-1.5818060841658235e+24,1133.445652574146,2.3413021689346525e+22
0.0009175492024626538,1.908566846812349e+18,-1.5901622489924845e+24,1138.0767636615842,2.3300682698843207e+22
0.0009275492024626538,1.8577358299200105e+18,-1.5982882273008505e+24,1142.6758359574042,2.319163531064625e+22
0.0009375492024626538,1.8089041598581898e+18,-1.6061877260938872e+24,1147.2433719590042,2.308572970056997e+22
0.0009475492024626539,1.7619695799783946e+18,-1.613864331264918e+24,1151.7798601881725,2.298282764910995e+22
0.0009575492024626539,1.7168361818951045e+18,-1.6213215062686738e+24,1156.2857757366749,2.28828013476014e+22
0.0009675492024626539,1.6734139411778834e+18,-1.6285625913284042e+24,1160.761580784623,2.2785532340105736e+22
0.000977549202462654,1.631618292255544e+18,-1.6355908031695447e+24,1165.2077250934974,2.2690910584647325e+22
0.000987549202462654,1.5913697387887956e+18,-1.6424092352561296e+24,1169.624646474544,2.259883361949608e+22
0.000997549202462654,1.5525934961582784e+18,-1.6490208585270793e+24,1174.0127712351673,2.2509205822304036e+22
0.001007549202462654,1.5152191630754138e+18,-1.6554285226016626e+24,1178.3725146036656,2.242193775121973e+22
0.001017549202462654,1.4791804196294628e+18,-1.6616349574369166e+24,1182.7042811338767,2.2336945558628164e+22
0.001027549202462654,1.44441474935961e+18,-1.6676427754168946e+24,1187.0084650911874,2.2254150469313714e+22
0.001037549202462654,1.4108631831890427e+18,-1.6734544738405334e+24,1191.2854508202645,2.2173478315726494e+22
0.0010475492024626541,1.3784700632689057e+18,-1.6790724377920265e+24,1195.5356130964728,2.209485912408599e+22
0.0010575492024626541,1.3471828249803735e+18,-1.6844989433535572e+24,1199.7593174608458,2.201822674556927e+22
0.0010675492024626542,1.3169517955081856e+18,-1.689736161141308e+24,1203.9569205404018,2.1943518527704216e+22
0.0010775492024626542,1.2877300075571712e+18,-1.6947861601298988e+24,1208.1287703542262,2.1870675021499002e+22
0.0010875492024626542,1.2594730269197578e+18,-1.6996509117322782e+24,1212.2752066058636,2.1799639720358438e+22
0.0010975492024626542,1.2321387927231183e+18,-1.704332294108979e+24,1216.396560963212,2.173035882734095e+22
0.0011075492024626543,1.2056874692970135e+18,-1.7088320966720842e+24,1220.493157326268,2.16627810476043e+22
0.0011175492024626543,1.1800813087006702e+18,-1.7131520247547296e+24,1224.5653120835298,2.15968574032766e+22
0.0011275492024626543,1.155284523036567e+18,-1.7172937044135265e+24,1228.6133343574616,2.153254106824689e+22
0.0011375492024626543,1.1312631657578835e+18,-1.7212586873354044e+24,1232.637526239701,2.146978722066782e+22
0.0011475492024626544,1.1079850212482326e+18,-1.725048455819988e+24,1236.6381830165706,2.140855291118419e+22
0.0011575492024626544,1.0854195020170833e+18,-1.7286644278091784e+24,1240.6155933853715,2.1348796945105422e+22
0.0011675492024626544,1.0635375529132279e+18,-1.7321079619344895e+24,1244.5700396616699,2.1290479776905275e+22
0.0011775492024626545,1.0423115618091316e+18,-1.73538036256148e+24,1248.501797978513,2.1233563415671432e+22
0.0011875492024626545,1.0217152762595503e+18,-1.738482884800963e+24,1252.4111384773935,2.1178011340170374e+22
0.0011975492024626545,1.0017237256778733e+18,-1.7414167394692646e+24,1256.298325491843,2.112378842243547e+22
0.0012075492024626545,9.823131486143855e+17,-1.7441830979741406e+24,1260.1636177238213,2.107086085883714e+22
0.0012175492024626546,9.634609247558319e+17,-1.7467830971052832e+24,1264.0072684130873,2.1019196107710364e+22
0.0012275492024626546,9.451455112962711e+17,-1.749217843715215e+24,1267.8295255002643,2.096876283276403e+22
0.0012375492024626546,9.273463833603383e+17,-1.7514884192696493e+24,1271.6306317834321,2.0919530851503767e+22
0.0012475492024626546,9.100439781843526e+17,-1.753595884256517e+24,1275.4108250689321,2.0871471088062807e+22
0.0012575492024626547,8.932196427859021e+17,-1.7555412824394137e+24,1279.1703383165313,2.0824555529857873e+22
0.0012675492024626547,8.768555848744636e+17,-1.757325644942383e+24,1282.9093997790187,2.0778757187548335e+22
0.0012775492024626547,8.609348267742374e+17,-1.7589499941599212e+24,1286.6282331368689,2.0734050057887968e+22
0.0012875492024626547,8.45441162150362e+17,-1.7604153474794585e+24,1290.3270576277182,2.0690409089032757e+22
0.0012975492024626548,8.303591153441608e+17,-1.761722720813875e+24,1294.0060881713332,2.064781014800137e+22
0.0013075492024626548,8.15673903139836e+17,-1.7628731319356946e+24,1297.665535489949,2.0606229989957363e+22
0.0013175492024626548,8.013713987975484e+17,-1.7638676036112077e+24,1301.3056062244225,2.0565646229071563e+22
0.0013275492024626548,7.874380982014493e+17,-1.7647071665297766e+24,1304.9265030461443,2.0526037310716684e+22
0.0013375492024626549,7.738610879817129e+17,-1.7653928620290555e+24,1308.5284247651427,2.04873824848189e+22
0.001347549202462655,7.606280154813757e+17,-1.7659257446126734e+24,1312.1115664341824,2.0449661780167477e+22
0.001357549202462655,7.477270604466268e+17,-1.766306884266221e+24,1315.6761194496112,2.0412855979588505e+22
0.001367549202462655,7.351469083305327e+17,-1.7665373685667832e+24,1319.2222716483664,2.0376946595798884e+22
0.001377549202462655,7.228767251057798e+17,-1.7666183045941823e+24,1322.7502074019226,2.0341915847893247e+22
0.001387549202462655,7.109061334911031e+17,-1.7665508206447484e+24,1326.2601077070365,2.0307746638354713e+22
0.001397549202462655,6.992251905026399e+17,-1.7663360677511717e+24,1329.7521502733484,2.0274422530515573e+22
0.001407549202462655,6.878243662473644e+17,-1.765975221013875e+24,1333.2265096080387,2.024192772641913e+22
0.001417549202462655,6.766945238814872e+17,-1.765469480750763e+24,1336.683357097854,2.0210247045054546e+22
0.0014275492024626551,6.658269006629167e+17,-1.7648200734680457e+24,1340.1228610882408,2.0179365900900823e+22
0.0014375492024626551,6.552130900305937e+17,-1.7640282526616108e+24,1343.545186960086,2.0149270282787495e+22
0.0014475492024626552,6.448450246492238e+17,-1.763095299452745e+24,1346.9504972038237,2.011994673302742e+22
0.0014575492024626552,6.347149603611997e+17,-1.7620225230670348e+24,1350.3389514912485,2.009138232683093e+22
0.0014675492024626552,6.248154609920982e+17,-1.7608112611619272e+24,1353.710706744912,2.006356465197935e+22
0.0014775492024626552,6.151393839587764e+17,-1.7594628800133724e+24,1357.0659172056064,2.003648178878968e+22
0.0014875492024626553,6.056798666339388e+17,-1.7579787745642382e+24,1360.404734497394,2.0010122290324845e+22
0.0014975492024626553,5.96430313422595e+17,-1.7563603683453083e+24,1363.7273076906808,1.9984475162889817e+22
0.0015075492024626553,5.873843835088836e+17,-1.754609113278325e+24,1367.0337833636922,1.9959529846841622e+22
0.0015175492024626553,5.785359792361304e+17,-1.7527264893616712e+24,1370.3243056614722,1.9935276197652275e+22
0.0015275492024626554,5.698792350827953e+17,-1.7507140042531753e+24,1373.5990163534038,1.9911704467307774e+22
0.0015375492024626554,5.614085072007659e+17,-1.7485731927560279e+24,1376.8580548891541,1.9888805286041614e+22
0.0015475492024626554,5.5311836348512026e+17,-1.746305616211421e+24,1380.1015584525703,1.9866569644376504e+22
