t(s),Adsorbed H on surface 1 (H m-2),solute flux surface 1 (H m-2 s-1),Total T surface 1 (K),0 value at [0] (H m-3)
1e-10,212.77215177125584,-71619758582.22043,300.05669362554266,8178370740524.164
2e-10,632.2705127022332,-154148760534.39566,300.08706721600225,16111733520602.879
3e-10,1252.3095015847734,-246979772983.67413,300.11144455300627,23798970335424.35
4e-10,2066.8718107350737,-349663928613.969,300.13314893825157,31247882918799.547
5e-10,3070.1496121108403,-461781539203.3861,300.15340975215,38467219564334.12
6e-10,4256.558443241091,-582935697186.639,300.17283666800034,45465987525190.555
7e-10,5620.740662442956,-712749662308.5109,300.1917846461728,52253175937778.03
7.999999999999999e-10,7157.564059099888,-850865384707.378,300.2104830665447,58837625582545.08
8.999999999999999e-10,8862.117975117222,-996942471670.4672,300.2290917049038,65227962793108.375
9.999999999999999e-10,10729.7080869156,-1150657361362.002,300.2477284697293,71432565250215.12
1.1e-09,12755.850466262284,-1311702608523.3074,300.26648452397257,77459545099208.73
1.2e-09,14936.265276483686,-1479786239510.4705,300.2854331449932,83316742093927.84
1.3e-09,17266.870320290363,-1654631155835.6235,300.3046352170125,89011722809925.84
1.4000000000000001e-09,19743.774575205884,-1835974575281.2815,300.32414279463376,94551783645153.25
1.5000000000000002e-09,22363.271804293785,-2023567504466.7078,300.34400150351917,99943956226471.6
1.6000000000000003e-09,25121.83429958328,-2217174239207.408,300.3642522097898,105195014351979.44
1.7000000000000003e-09,28016.10679594774,-2416571890324.8623,300.3849322128966,110311481903695.53
1.8000000000000004e-09,31042.90058009765,-2621549933293.5093,300.4060761183946,115299641353657.64
1.9000000000000005e-09,34199.187810433345,-2831909780530.914,300.4277164899899,120165542607117.12
2.0000000000000005e-09,37482.096057325674,-3047464375385.741,300.4498843458596,124915012005912.55
2.1000000000000006e-09,40888.90306905884,-3268037807031.821,300.47260954287,129553661368675.72
2.2000000000000007e-09,44417.03176560443,-3493464945576.2373,300.4959210786488,134086896981442.12
2.3000000000000007e-09,48064.0454602193,-3723591096757.3276,300.5198473324941,138519928478151.27
2.400000000000001e-09,51827.643307318984,-3958271675659.18,300.54441626009356,142857777569007.62
2.500000000000001e-09,55705.65597399618,-4197371898908.522,300.5696555529075,147105286588039.25
2.600000000000001e-09,59696.0415318099,-4440766494854.1455,300.5955927702077,151267126840972.38
2.700000000000001e-09,63796.88156497639,-4688339431259.211,300.62225544972927,155347806741770.97
2.800000000000001e-09,68006.37749078745,-4939983660065.764,300.6496712014363,159351679731577.12
2.900000000000001e-09,72322.84708791743,-5195600878818.591,300.67786778783875,163282951977834.62
3.0000000000000012e-09,76744.72122822603,-5455101308363.276,300.7068731935111,167145689854426.8
3.1000000000000013e-09,81270.54080769196,-5718403486461.004,300.7367156858805,170943827205971.34
3.2000000000000014e-09,85898.95387220713,-5985434076990.804,300.7674238689074,174681172401170.1
3.3000000000000014e-09,90628.71293410526,-6256127694437.997,300.79902673094637,178361415181445.38
3.4000000000000015e-09,95458.67247548395,-6530426743396.926,300.83155368781587,181988133312110.62
3.5000000000000016e-09,100387.78663459608,-6808281272844.653,300.86503462190234,185564799044093.7
3.6000000000000016e-09,105415.10707182936,-7089648844973.023,300.8994999179698,189094785394817.16
3.7000000000000017e-09,110539.78101205695,-7374494418396.265,300.93498049621985,192581372257285.0
3.800000000000002e-09,115761.04946042369,-7662790245582.872,300.9715078430491,196027752346760.53
3.900000000000002e-09,121078.24558892987,-7954515784392.112,301.0091140398728,199437036994678.12
4.000000000000002e-09,126490.79329148437,-8249657623628.43,301.0478317903199,202812261799626.7
4.100000000000002e-09,131998.20590542184,-8548209422560.061,301.08769444605235,206156392145398.25
4.200000000000002e-09,137600.08509781226,-8850171864383.18,301.12873603142276,209472328596218.1
4.300000000000002e-09,143296.11991523567,-9155552623647.879,301.17099126714595,212762912179379.12
4.400000000000002e-09,149086.08599605123,-9464366347699.37,301.2144955931363,216030929565600.8
4.500000000000002e-09,154969.84494455572,-9776634652225.682,301.25928519063655,219279118157525.56
4.600000000000002e-09,160947.3438668059,-10092386131042.26,301.30539700374527,222510171096864.62
4.700000000000002e-09,167018.61506826957,-10411656380285.646,301.3528687604351,225726742200813.97
4.8000000000000024e-09,173183.77591387482,-10734488037230.258,301.40173899313794,228931450838481.66
4.9000000000000025e-09,179443.02885144524,-11060930833988.105,301.4520470589651,232126886758210.47
5.0000000000000026e-09,185796.66159994368,-11391041666397.291,301.5038331596173,235315614876839.84
5.100000000000003e-09,192245.04750439903,-11724884678455.46,301.5571383610346,238500180042143.75
5.200000000000003e-09,198788.64605986085,-12062531362705.387,301.61200461282664,241683111779894.9
5.300000000000003e-09,205428.00360721844,-12404060677035.64,301.6684747675184,244866929037259.28
5.400000000000003e-09,212163.7542042355,-12749559178417.01,301.72659259964325,248054144934510.56
5.500000000000003e-09,218996.6206756908,-13099121174157.078,301.786402824708,251247271537379.28
5.600000000000003e-09,225927.41584708283,-13452848891320.73,301.84795111805164,254448824662720.22
5.700000000000003e-09,232957.04396695382,-13810852665034.67,301.9112841336181,257661328730596.53
5.800000000000003e-09,240086.50232351935,-14173251146467.89,301.976449522657,260887321676343.44
5.900000000000003e-09,247316.88306195734,-14540171531359.924,302.0434959523666,264129359936692.56
6.000000000000003e-09,254649.37520941743,-14911749810053.979,302.1124731244896,267390023524616.28
6.100000000000003e-09,262085.26691556338,-15288131040083.258,302.1834317938707,270671921208189.84
6.200000000000003e-09,269625.9479172607,-15669469642457.188,302.25642378698296,273977695809478.25
6.3000000000000035e-09,277272.9122368732,-16055929722899.336,302.3315020204289,277310029640236.0
6.4000000000000035e-09,285027.76112454257,-16447685419403.295,302.4087205194198,280671650092066.4
6.500000000000004e-09,292892.20625579776,-16844921277594.533,302.48813443623675,284065335399637.44
6.600000000000004e-09,300868.0731968821,-17247832655519.342,302.5698000686748,287493920596584.56
6.700000000000004e-09,308957.3051513042,-17656626159624.758,302.6537748784704,290960303684874.4
6.800000000000004e-09,317161.96700231853,-18071520113848.723,302.74011750971346,294467452039648.7
6.900000000000004e-09,325484.2496673311,-18492745063906.676,302.8288878072403,298018409072934.44
7.000000000000004e-09,333926.4747816154,-18920544319044.17,302.92014683500787,301616301181097.6
7.100000000000004e-09,342491.09973022126,-19355174533721.594,303.0139568944452,305264345002553.1
7.200000000000004e-09,351180.72304857476,-19796906331912.844,303.11038154277895,308965855014024.2
7.300000000000004e-09,359998.09021401295,-20246024976932.867,303.2094856113292,312724251495592.7
7.400000000000004e-09,368946.0998523847,-20702831089963.695,303.3113352237704,316543068896908.5
7.500000000000004e-09,378027.81038589263,-21167641420726.03,303.41599781435264,320425964639246.3
7.600000000000004e-09,387246.4471505629,-21640789674045.55,303.523542146077,324376728390631.44
7.700000000000003e-09,396605.41001413343,-22122627396393.77,303.6340383288196,328399291854022.7
7.800000000000002e-09,406108.281527753,-22613524926843.14,303.74755783739624,332497739111556.44
7.900000000000001e-09,415758.8356477169,-23113872417271.64,303.86417352956187,336676317571153.5
8e-09,425561.0470665408,-23624080927082.203,303.98395966393565,340939449565384.5
8.1e-09,435519.1011960235,-24144583598176.59,304.1069919178453,345291744656420.25
8.199999999999999e-09,445637.4048485954,-24675836916439.83,304.2333474050807,349738012705182.6
8.299999999999998e-09,455920.5976672232,-25218322066560.438,304.36310469354885,354283277767499.06
8.399999999999997e-09,466373.56435847725,-25772546387634.7,304.49634382282034,358932792885185.9
8.499999999999997e-09,477001.4477880951,-26339044937689.51,304.63314632155823,363692055845586.7
8.599999999999996e-09,487809.6630035459,-26918382176009.375,304.7735952248189,368566825989213.7
8.699999999999995e-09,498803.91225374554,-27511153772984.242,304.91777509121476,373563142151841.56
8.799999999999994e-09,509990.20108225185,-28117988558105.87,305.06577201992854,378687341834733.06
8.899999999999994e-09,521374.8555770319,-28739550617745.805,305.21767366756734,383946081704702.94
8.999999999999993e-09,532964.5408673029,-29376541555457.375,305.3735692648461,389346359534520.6
9.099999999999992e-09,544766.2809660676,-30029702928766.8,305.5335496330879,394895537703782.5
9.199999999999991e-09,556787.4800658766,-30699818877770.543,305.6977072005303,400601368390950.9
9.29999999999999e-09,569035.9454051292,-31387718962348.598,305.8661360184245,406472020598838.06
9.39999999999999e-09,581519.9118329678,-32094281226455.938,306.03893177691543,412516109168527.9
9.499999999999989e-09,594248.0682126333,-32820435509782.3,306.21619182068974,418742725950680.94
9.599999999999988e-09,607229.5858161428,-33567167029096.5,306.398015164379,425161473318503.6
9.699999999999988e-09,620474.1488774545,-34335520253837.043,306.58450250770403,431782500223500.7
9.799999999999987e-09,633991.9874870424,-35126603103002.176,306.7757562503476,438616541013664.1
9.899999999999986e-09,647793.9130281807,-35941591493159.9,306.9718805065414,445674957254120.8
9.999999999999985e-09,661891.3563743982,-36781734270472.586,307.17298111935276,452969782812698.0
1.0099999999999985e-08,676296.4090887283,-37648358563049.73,307.3791656746571,460513772497564.2
1.0199999999999984e-08,691021.867888755,-38542875593750.11,307.5905435147821,468320454561323.7
1.0299999999999983e-08,706081.2826673033,-39466786997790.93,307.80722575180744,476404187415950.3
1.0399999999999982e-08,721489.008387218,-40421691694252.02,308.0293252805064,484780220936049.6
1.0499999999999982e-08,737260.2612003385,-41409293365831.53,308.2569567909131,493464762764469.94
1.059999999999998e-08,753411.179175859,-42431408607102.22,308.4902367805004,502475050074630.0
1.069999999999998e-08,769958.8880621635,-43489975808094.734,308.7292835659531,511829427288512.1
1.079999999999998e-08,786921.5725493891,-44587064847395.46,308.974217294519,521547430298546.94
1.0899999999999978e-08,804318.5535479069,-45724887677185.19,309.22515995492404,531649877796144.6
1.0999999999999978e-08,822170.372051173,-46905809891873.97,309.48223538783316,542158970369957.06
1.1099999999999977e-08,840498.8802106444,-48132363382338.8,309.7455692958419,553098398103789.3
1.1199999999999976e-08,859327.340316383,-49407260189380.99,310.0152892529811,564493457478120.8
1.1299999999999975e-08,878680.5324504011,-50733407683069.195,310.2915247137185,576371178461297.1
1.1399999999999975e-08,898584.8716616533,-52113925209294.016,310.5744070214401,588760462767531.0
1.1499999999999974e-08,919068.535602878,-53552162361358.79,310.86406941639444,601692234359944.8
1.1599999999999973e-08,940161.6036714128,-55051719053008.266,311.160647043082,615199603389175.2
1.1699999999999972e-08,961896.2088099716,-56616467590233.375,311.46427695707297,629318044882837.6
1.1799999999999972e-08,984306.7032506771,-58250576962807.05,311.77509813123555,644085593639898.6
1.1899999999999971e-08,1007429.8396280835,-59958539603167.92,312.0932514613574,659543056938383.9
1.199999999999997e-08,1031304.9690464274,-61745200890398.54,312.41887977114243,675734246836699.5
1.209999999999997e-08,1055974.2578650932,-63615791711116.195,312.75212781656495,692706234040283.0
1.2199999999999969e-08,1081482.9251667473,-65575964427668.52,313.09314228956396,710509625518663.6
1.2299999999999968e-08,1107879.5030976045,-67631832647723.42,313.4420718210588,729198868295950.4
1.2399999999999967e-08,1135216.1225220386,-69790015238898.04,313.79906698326886,748832582103290.5
1.2499999999999966e-08,1163548.8267178854,-72057685088317.66,314.16428029131885,769473923878283.6
1.2599999999999966e-08,1192937.916158457,-74442623170889.86,314.5378662041119,791190987427527.8
1.2699999999999965e-08,1223448.3277872263,-76953278562729.72,314.9199811244516,814057241938676.6
1.2799999999999964e-08,1255150.0525967402,-79598835118857.8,315.3107833983968,838152013442465.6
1.2899999999999963e-08,1288118.5957807407,-82389285628471.3,315.71043331382754,863561013788540.1
1.2999999999999963e-08,1322435.4842447473,-85335514368477.22,316.11909309820834,890376922217831.2
1.3099999999999962e-08,1358188.826843519,-88449389098512.33,316.536926915527,918700025195596.8
1.3199999999999961e-08,1395473.9333730692,-91743863680648.4,316.9641008623928,948638920821016.5
1.329999999999996e-08,1434393.9990907786,-95233092666997.81,317.4007829632756,980311294860330.9
1.339999999999996e-08,1475060.8623816967,-98932559381552.2,317.8471431648682,1013844776271059.5
1.3499999999999959e-08,1517595.8441461634,-102859219232308.38,318.3033533295529,1049377881006314.0
1.3599999999999958e-08,1562130.6785692952,-107031660230176.1,318.7695872279561,1087061053923614.9
1.3699999999999957e-08,1608808.5461648458,-111470282967043.06,319.24602053057174,1127057819786688.5
1.3799999999999956e-08,1657785.2213854159,-116197502622235.55,319.7328307984375,1169546055658170.0
1.3899999999999956e-08,1709230.3486819807,-121237975930854.72,320.23019747284405,1214719398454948.8
1.3999999999999955e-08,1763328.8627059136,-126618856466588.05,320.7383018640627,1262788803097633.2
1.4099999999999954e-08,1820282.5704079582,-132370082074265.78,321.2573271390722,1313984268555748.8
1.4199999999999953e-08,1880311.9151376528,-138524698843831.69,321.7874583082683,1368556751198608.8
1.4299999999999953e-08,1943657.9455258627,-145119226659361.12,322.3288822111402,1426780287240021.2
1.4399999999999952e-08,2010584.514991156,-152194072098107.56,322.8817875008951,1488954348748994.2
1.4499999999999951e-08,2081380.7412041505,-159793995311498.03,323.4463646280169,1555406460729376.5
1.459999999999995e-08,2156363.758837803,-167968638511391.2,324.0228058227411,1626495110195517.2
1.469999999999995e-08,2235881.8035012227,-176773124832961.84,324.6113050764308,1702612982041560.5
1.4799999999999949e-08,2320317.6699870992,-186268737676162.66,325.2120581218379,1784190560879405.8
1.4899999999999948e-08,2410092.5939591173,-196523692171328.34,325.825262412234,1871700142973546.8
1.499999999999995e-08,2505670.6130826776,-207614012206741.22,326.45111709939573,1965660308008451.5
1.509999999999995e-08,2607563.4714953033,-219624528538882.06,327.0898230104311,2066640906775508.2
1.519999999999995e-08,2716336.1405794625,-232650015928796.4,327.74158262342974,2175268628063881.5
1.5299999999999952e-08,2832613.0394226173,-246796490068560.94,328.4066000419258,2292233216199683.5
1.5399999999999953e-08,2957085.0503389933,-262182688348316.97,329.0850809681575,2418294419933670.5
1.5499999999999954e-08,3090517.43863112,-278941762347127.12,329.77723267511175,2554289763881248.5
1.5599999999999954e-08,3233758.8016730193,-297223214404589.8,330.48326397733877,2701143245643625.5
1.5699999999999955e-08,3387751.190734285,-317195115856407.94,331.2033852005264,2859875075283839.0
1.5799999999999956e-08,3553541.570123242,-339046650627636.6,331.93780814982017,3031612589222931.0
1.5899999999999957e-08,3732294.8026599735,-362991035027763.9,332.6867460768784,3217602488118937.0
1.5999999999999958e-08,3925308.3787232665,-389268872966020.4,333.4504136456506,3419224568191158.5
1.609999999999996e-08,4134029.1387641537,-418152015620777.7,334.2290268968681,3638007138093365.5
1.619999999999996e-08,4360072.276960041,-449948006111020.0,335.0228032112378,3875644339210299.5
1.629999999999996e-08,4605242.957435081,-485005203235262.75,335.8319612713276,4134015616595724.0
1.639999999999996e-08,4871560.925173042,-523718694225115.1,336.65672102213586,4415207621195812.0
1.6499999999999962e-08,5161288.552542393,-566537125134797.1,337.4973036303342,4721538862090037.0
1.6599999999999963e-08,5476962.830577319,-613970599462208.0,338.3539314421781,5055587470899441.0
1.6699999999999964e-08,5821431.89337837,-666599821473920.4,339.2268279400748,5420222490021179.0
1.6799999999999965e-08,6197896.75604468,-725086691201556.2,340.1162176978033,5818639152822509.0
1.6899999999999966e-08,6609959.053572331,-790186594040302.5,341.02232633437995,6254398688366983.0
1.6999999999999967e-08,7061675.6926651355,-862762670322463.9,341.9453804665632,6731473256796572.0
1.7099999999999968e-08,7557621.473352521,-943802400361900.8,342.88560765999205,7254296705468675.0
1.719999999999997e-08,8102960.906151288,-1034436899698771.0,343.84323637895494,7827821931851118.0
1.729999999999997e-08,8703530.647299482,-1135963389320543.5,344.81849593478364,8457585748734008.0
1.739999999999997e-08,9365934.20409152,-1249871388521961.8,345.8116164328708,9149782272501098.0
1.749999999999997e-08,10097650.830142936,-1377873276208275.5,346.82282871830625,9911345998276732.0
1.7599999999999972e-08,10907160.843075044,-1521939982721306.8,347.8523643201328,1.075004588932223e+16
1.7699999999999973e-08,11804089.96234725,-1684342712107794.0,348.90045539421874,1.1674591995068612e+16
1.7799999999999974e-08,12799375.691842638,-1867701758246727.0,349.96733466474694,1.2694756326045944e+16
1.7899999999999975e-08,13905459.270988544,-2075043672289456.0,351.0532353643217,1.3821509958605698e+16
1.7999999999999976e-08,15136507.302201621,-2309868269269035.5,352.15839117269405,1.506717862220019e+16
1.8099999999999977e-08,16508667.846030416,-2576227235458274.5,353.2830361541069,1.644561934220468e+16
1.8199999999999978e-08,18040366.57587593,-2878816423402295.0,354.42740469326424,1.7972421077707688e+16
1.829999999999998e-08,19752649.52201936,-3223084308435719.0,355.59173142992574,1.9665132713073544e+16
1.839999999999998e-08,21669580.03391078,-3615359540760078.0,356.7762511921333,2.154352224209025e+16
1.849999999999998e-08,23818698.878571033,-4063001074949427.0,357.98119892807375,2.362987153296659e+16
1.859999999999998e-08,26231557.90485441,-4574575010972918.0,359.2068096365829,2.5949311691416052e+16
1.8699999999999982e-08,28944339.47745929,-5160063057666256.0,360.45331829629924,2.8530204759106044e+16
1.8799999999999983e-08,31998575.967186674,-5831108455178329.0,361.72095979347404,3.14045783090614e+16
1.8899999999999984e-08,35441986.02949281,-6601306296100314.0,363.0099688484464,3.460862044329775e+16
1.8999999999999985e-08,39329447.27602275,-7486546500205802.0,364.3205799407937,3.8183243778297304e+16
1.9099999999999986e-08,43724128.31914189,-8505419266165360.0,365.65302723316603,4.217472824067206e+16
1.9199999999999987e-08,48698807.13657154,-9679694694441630.0,367.007544493817,4.663545391105779e+16
1.9299999999999988e-08,54337407.367030814,-1.1034890507598664e+16,368.38436501784366,5.162473677472218e+16
1.939999999999999e-08,60736789.631943576,-1.2600944457686932e+16,369.78372154714634,5.720978209199502e+16
1.949999999999999e-08,68008841.42847846,-1.4413011189063596e+16,371.20584618912426,6.346677222403525e+16
1.959999999999999e-08,76282916.72709447,-1.6512407119134448e+16,372.6509703341214,7.048210817797921e+16
1.969999999999999e-08,85708685.33456711,-1.8947731428645396e+16,374.11932457163715,7.835382691388133e+16
1.9799999999999992e-08,96459462.58934677,-2.1776196660056036e+16,375.6111386053209,8.719321963389163e+16
1.9899999999999993e-08,108736102.32055834,-2.506520887753606e+16,377.12664116676507,9.712667990857376e+16
1.9999999999999994e-08,122771550.55530435,-2.8894245048452016e+16,378.6660599281178,1.082978146507732e+17
2.0099999999999995e-08,138836174.59006345,-3.335708450618717e+16,380.22962141353383,1.2086985569752594e+17
2.0199999999999996e-08,157244002.20862535,-3.856446233663776e+16,381.8175509094827,1.3502841518874925e+17
2.0299999999999996e-08,178360029.5698254,-4.464722563996943e+16,383.43007237393897,1.5098463413288128e+17
2.0399999999999997e-08,202608784.23703966,-5.1760089265139064e+16,385.06740834447317,1.6897878063209382e+17
