t(s),Adsorbed H on surface 1 (H m-2),solute flux surface 1 (H m-2 s-1),Total T surface 1 (K),0 value at [0] (H m-3)
1e-08,3265.690290870201,-3061479537.83371,301.39293503283693,2213550713507842.5
2e-08,11287.09965013177,-7150721442.067159,303.1753178143677,4988941353183399.0
3.0000000000000004e-08,26723.223021160906,-13005652710.848549,305.3761285001452,8645120813980660.0
4e-08,54158.62766428877,-21698277562.538467,307.9110448927634,1.3643149310260018e+16
5e-08,101495.50221969136,-34881193260.57465,310.72708936685694,2.0674506171817336e+16
6e-08,182458.44140161946,-55155640818.185486,313.7862160808121,3.0791791013313304e+16
6.999999999999999e-08,321104.45076425315,-86655347734.13992,317.0593378718283,4.560893289799912e+16
7.999999999999999e-08,559962.7774582313,-135985141684.19913,320.52321879205476,6.760926894424475e+16
8.999999999999999e-08,974748.6752596716,-213740329441.89725,324.1587062024044,1.0061892686538486e+17
9.999999999999998e-08,1700962.529070537,-336985656011.3391,327.94964006123314,1.505314258804884e+17
1.0999999999999998e-07,2981905.7308598356,-533349278158.3197,331.88213736314253,2.264111764676581e+17
1.2e-07,5255108.521283256,-847907472823.5906,335.94409971521003,3.4216401264313114e+17
1.3e-07,9307250.106365789,-1355050173542.5044,340.1248612727454,5.1904935438961325e+17
1.4e-07,16550370.298188183,-2179548729475.3948,344.4149290393473,7.89430790851411e+17
1.5000000000000002e-07,29511208.868652634,-3535178612563.8486,348.805786248146,1.2023324450681477e+18
1.6000000000000003e-07,52691846.80097756,-5797695094558.819,353.2897401874274,1.8316035633847962e+18
1.7000000000000004e-07,94071254.75484538,-9646169337737.42,357.8598021801917,2.7878135116310804e+18
1.8000000000000005e-07,167702280.54582793,-16341445046289.693,362.5095913625186,4.235428313508646e+18
1.9000000000000006e-07,298161688.3092251,-28279752191417.895,367.2332564298024,6.417387174228601e+18
2.0000000000000007e-07,528101235.1487185,-50095498894836.516,372.02541118715925,9.689936593640602e+18
2.1000000000000008e-07,930930776.351048,-90849723722985.44,376.8810808701868,1.457152773664607e+19
2.200000000000001e-07,1631897918.058957,-168338372561155.88,381.79565698552904,2.1810778662176883e+19
2.300000000000001e-07,2842745493.1456375,-317481315563202.25,386.7648589747717,3.2479984992432943e+19
2.400000000000001e-07,4918065204.020943,-606447416708695.4,391.7847014042859,4.8102463969737286e+19
2.500000000000001e-07,8445902770.004337,-1167212423802999.0,396.8514656758222,7.082416049062878e+19
2.600000000000001e-07,14391776714.399218,-2252606440126396.5,401.96167546975903,1.036424347777309e+20
2.700000000000001e-07,24324967246.501175,-4341181928911081.0,407.1120752963977,1.5070776834272638e+20
2.800000000000001e-07,40769945604.44164,-8326988524849077.0,412.29961165534354,2.1771720943837984e+20
2.9000000000000014e-07,67745766871.32158,-1.5857620581595418e+16,417.52141639911264,3.124216253211805e+20
3.0000000000000015e-07,111584220697.60791,-2.992694022144194e+16,422.77479197197914,4.452720727808197e+20
3.1000000000000016e-07,182156132274.33572,-5.589807121854692e+16,428.0571982539732,6.302336120445989e+20
3.2000000000000017e-07,294687614069.70496,-1.0324146028488874e+17,433.3662407866782,8.857973768299134e+20
3.300000000000002e-07,472418062616.39404,-1.8844195333665114e+17,438.6996601948825,1.2362233188128653e+21
3.400000000000002e-07,750443607307.8599,-3.3978593823014394e+17,444.05532264830066,1.713046369472581e+21
3.500000000000002e-07,1181208342118.7878,-6.051229734050826e+17,449.43121123208067,2.356877398476859e+21
3.600000000000002e-07,1842256081865.0234,-1.0642569302933658e+18,454.82541811484765,3.219526929572686e+21
3.700000000000002e-07,2847042684440.619,-1.8484253549582336e+18,460.23613741952136,4.366473846473949e+21
3.800000000000002e-07,4359837974639.988,-3.170454778777951e+18,465.66165871579494,5.879693219112082e+21
3.9000000000000024e-07,6616021142985.098,-5.370733258814573e+18,471.10036106452384,7.860847122316866e+21
4.0000000000000025e-07,9949397332650.06,-8.986234256449803e+18,476.55070755378534,1.0434830483500256e+22
4.1000000000000026e-07,14828537907996.352,-1.4852584639496081e+19,482.0112402743671,1.3753651577224474e+22
4.2000000000000027e-07,21904573318542.906,-2.425272586874667e+19,487.48057568920353,1.8000615194771937e+22
4.300000000000003e-07,32073345281377.438,-3.913019858813428e+19,492.9574003570178,2.3394767515134888e+22
4.400000000000003e-07,46555353678405.836,-6.23905975089722e+19,498.44046697531905,3.0195557232443977e+22
4.500000000000003e-07,66997513385035.11,-9.832137612380645e+19,503.9285907120941,3.870766941637673e+22
4.600000000000003e-07,95601369711248.97,-1.5316796683235223e+20,509.4206457991291,4.9285998332229984e+22
4.700000000000003e-07,135283114490730.77,-2.3591310627784537e+20,514.9155623630031,6.234074364331407e+22
4.800000000000003e-07,189871509427190.34,-3.593162464891331e+20,520.4123234724802,7.834264049043304e+22
4.900000000000003e-07,264350676219047.5,-5.412808661756841e+20,525.9099623833604,9.78283658778573e+22
5.000000000000003e-07,365155676780533.2,-8.066292104260783e+20,531.4075599638816,1.2140619808295743e+23
5.100000000000003e-07,500529744174654.1,-1.1893753979791742e+21,536.9042422855415,1.4976201201019167e+23
5.200000000000003e-07,680954128708049.4,-1.7356050694493928e+21,542.3991783657649,1.8366585924533774e+23
5.300000000000003e-07,919661134267003.1,-2.507072979137596e+21,547.8915780502077,2.239790616162787e+23
5.400000000000003e-07,1233244740504861.5,-3.5856544586511915e+21,553.3806900236991,2.7166215361826218e+23
5.500000000000003e-07,1642383583053263.2,-5.078792079466588e+21,558.865799939884,3.2778368870887854e+23
5.600000000000004e-07,2172693596147355.2,-7.126094433150427e+21,564.3462286605742,3.9352998849328694e+23
5.700000000000004e-07,2855729664934791.0,-9.907255839111992e+21,569.8213305966539,4.702158320131602e+23
5.800000000000004e-07,3730157802197182.5,-1.3651477054131077e+22,575.2904921431309,5.592960067764483e+23
5.900000000000004e-07,4843121480188157.0,-1.8648576437195066e+22,580.7531302015885,6.623775630544899e+23
6.000000000000004e-07,6251827695875465.0,-2.5261987246644337e+22,586.2086907838909,7.812325352999288e+23
6.100000000000004e-07,8025379991183052.0,-3.3943838012041192e+22,591.6566476915224,9.178108248285772e+23
6.200000000000004e-07,1.0246886833125728e+16,-4.525230680428138e+22,597.0965012654245,1.0742528789451064e+24
6.300000000000004e-07,1.3015874301199514e+16,-5.987142358460961e+22,602.5277772016199,1.2529017527472967e+24
6.400000000000004e-07,1.6451031714422312e+16,-7.8633463695658e+22,607.9500254282997,1.4563140966060962e+24
6.500000000000004e-07,2.0693317389138908e+16,-1.0254402508593455e+23,613.3628190404055,1.6872695675394534e+24
6.600000000000005e-07,2.5909448808509176e+16,-1.3280980608435877e+23,618.7657532880447,1.9487781073789085e+24
6.700000000000005e-07,3.2295796664258144e+16,-1.7086899229665016e+23,624.158444615371,2.2440844554894486e+24
6.800000000000005e-07,4.008269493476182e+16,-2.1842401198395667e+23,629.5405297468187,2.5766691607376764e+24
6.900000000000005e-07,4.953916867525204e+16,-2.7747621928508448e+23,634.9116648178137,2.950245220713213e+24
7.000000000000005e-07,6.0978066630316856e+16,-3.5036180296028045e+23,640.2715245473021,3.3687493035685085e+24
7.100000000000005e-07,7.476156606887118e+16,-4.397878836617268e+23,645.6198014496291,3.836326301095908e+24
7.200000000000005e-07,9.130699114182077e+16,-5.48867344677484e+23,650.9562050834836,4.357305727682553e+24
7.300000000000005e-07,1.1109285217548219e+17,-6.811504324117793e+23,656.2804613357812,4.936168231694057e+24
7.400000000000005e-07,1.3466497015399214e+17,-8.406505629651256e+23,661.5923117385141,5.577500244810698e+24
7.500000000000005e-07,1.626424967557827e+17,-1.0318610911562793e+24,666.891512816728,6.285934592589195e+24
7.600000000000006e-07,1.9572357446154947e+17,-1.2597590677106905e+24,672.1778354659133,7.066074771304977e+24
7.700000000000006e-07,2.3469030273326397e+17,-1.5297912854125335e+24,677.4510643572145,7.922400623726998e+24
7.800000000000006e-07,2.8041258530452042e+17,-1.847837288000321e+24,682.7109973689662,8.859153400126269e+24
7.900000000000006e-07,3.3385033194287315e+17,-2.2201436229530487e+24,687.957445043161,9.88019876843653e+24
8.000000000000006e-07,3.960533795283897e+17,-2.65322364616563e+24,693.1902300655466,1.0988867348835262e+25
8.100000000000006e-07,4.6815838871292883e+17,-3.153717862267291e+24,698.4091867681323,1.2187773900913692e+25
8.200000000000006e-07,5.513818741024901e+17,-3.7282113635320156e+24,703.6141606529587,1.3478618467212214e+25
8.300000000000006e-07,6.470084520872705e+17,-4.383007651948809e+24,708.8050079360612,1.4861975592159102e+25
8.400000000000006e-07,7.563733591183736e+17,-5.123862149848021e+24,713.9815951106166,1.6337081093849474e+25
8.500000000000006e-07,8.808383250565921e+17,-5.955684008147169e+24,719.1437985283301,1.7901629503336256e+25
8.600000000000007e-07,1.0217600023304781e+18,-6.882221115785449e+24,724.2915039981705,1.9551598725464424e+25
8.700000000000007e-07,1.1804503702976182e+18,-7.905749845650229e+24,729.4246064016188,2.1281121016308203e+25
8.800000000000007e-07,1.3581288667082683e+18,-9.026796999245711e+24,734.5430093236401,2.3082420142098716e+25
8.900000000000007e-07,1.5558664450229028e+18,-1.0243925284788083e+25,739.6466246986372,2.4945832677545046e+25
9.000000000000007e-07,1.77452230506989e+18,-1.1553614046211427e+25,744.7353724706846,2.6859926113639016e+25
9.100000000000007e-07,2.0146746707802327e+18,-1.295026269025509e+25,749.8091802673835,2.8811717572267577e+25
9.200000000000007e-07,2.2765476613277082e+18,-1.4426334865295243e+25,754.8679830867106,3.0786985047347155e+25
9.300000000000007e-07,2.559936991191435e+18,-1.5972647505635022e+25,759.9117229962739,3.2770649729402046e+25
9.400000000000007e-07,2.864137920299112e+18,-1.7578792117197749e+25,764.9403488444148,3.4747195492627026e+25
9.500000000000008e-07,3.1878795498003855e+18,-1.923365884314854e+25,769.9538159826313,3.6701082858245564e+25
9.600000000000008e-07,3.529270218888238e+18,-2.092601998398549e+25,774.9520859988204,3.861711233146973e+25
9.700000000000007e-07,3.885759382915869e+18,-2.2645121420592735e+25,779.935126460867,4.048069764346917e+25
9.800000000000006e-07,4.254121872960783e+18,-2.438122932064637e+25,784.9029106701303,4.227802327668654e+25
9.900000000000005e-07,4.63047070128692e+18,-2.6126085554771453e+25,789.8554174244032,4.399608106894e+25
1.0000000000000004e-06,5.010304341696128e+18,-2.787323686112483e+25,794.7926307899378,4.562260439491363e+25
1.0100000000000003e-06,5.388593366834087e+18,-2.9618217444064638e+25,799.7145398821568,4.714594102409518e+25
1.0200000000000002e-06,5.759909164281925e+18,-3.135857964628783e+25,804.621138654684,4.855492252146974e+25
1.03e-06,6.118594012197256e+18,-3.3093780437634058e+25,809.5124256963477,4.983879476248982e+25
1.04e-06,6.458967181934812e+18,-3.4824941612974347e+25,814.3884040358289,5.0987267896076085e+25
1.05e-06,6.775556439063055e+18,-3.6554508774075773e+25,819.2490809536395,5.1990724191406285e+25
1.0599999999999998e-06,7.063342502931867e+18,-3.8287472474206033e+25,824.0995927925766,5.284155675323865e+25
1.0699999999999997e-06,7.317980900881946e+18,-4.002645445219789e+25,828.9349094319417,5.353217683396868e+25
1.0799999999999996e-06,7.536006093598463e+18,-4.177514161093153e+25,833.7548387562896,5.40573882465321e+25
1.0899999999999995e-06,7.714983980265184e+18,-4.35368635477626e+25,838.5593963170236,5.441480557987367e+25
1.0999999999999994e-06,7.853599179841418e+18,-4.531420879471092e+25,843.3486166616643,5.460521679156887e+25
1.1099999999999993e-06,7.951670213921303e+18,-4.710876232002007e+25,848.1225389614582,5.463278030706436e+25
1.1199999999999992e-06,8.010093850818312e+18,-4.892095277934346e+25,852.8812046865072,5.450497947016115e+25
1.1299999999999991e-06,8.030727683968759e+18,-5.075001367880435e+25,857.6246571726183,5.423232003655293e+25
1.139999999999999e-06,8.016226045323903e+18,-5.259404917396279e+25,862.3529415728049,5.382780641911343e+25
1.149999999999999e-06,7.969847686916489e+18,-5.44501838135465e+25,867.066104879384,5.330626691712102e+25
1.1599999999999988e-06,7.895254092676753e+18,-5.631476869948923e+25,871.7641959431762,5.268361378627707e+25
1.1699999999999988e-06,7.796315214753542e+18,-5.818361494315046e+25,876.4472654746638,5.197612095076225e+25
1.1799999999999987e-06,7.676935664942808e+18,-6.00522283064873e+25,881.1153660270106,5.119978493353152e+25
1.1899999999999986e-06,7.540909860621856e+18,-6.191602495498476e+25,885.7685519643094,5.036981011222175e+25
1.1999999999999985e-06,7.391810155729335e+18,-6.377051545166216e+25,890.4068794186794,4.9500234536050326e+25
1.2099999999999984e-06,7.232908175713782e+18,-6.561145090473348e+25,895.030406239286,4.860369218478332e+25
1.2199999999999983e-06,7.067126739563233e+18,-6.743493055802655e+25,899.6391919356911,4.769129404048327e+25
1.2299999999999982e-06,6.897017965238077e+18,-6.923747372484563e+25,904.233297617383,4.677260373034699e+25
1.239999999999998e-06,6.724762314501718e+18,-7.101606092938498e+25,908.8127859308768,4.585568240536879e+25
1.249999999999998e-06,6.552183238925391e+18,-7.276814980944094e+25,913.377720995435,4.494718001852283e+25
1.2599999999999979e-06,6.380772509113248e+18,-7.449167119294468e+25,917.9281683381959,4.405245443595569e+25
1.2699999999999978e-06,6.211722027355269e+18,-7.618501017925092e+25,922.464194829306,4.317570447808994e+25
1.2799999999999977e-06,6.045958763940972e+18,-7.784697631897784e+25,926.9858686175,4.2320107194729154e+25
1.2899999999999976e-06,5.884180292665318e+18,-7.947676626725493e+25,931.4932590664656,4.14879530347322e+25
1.2999999999999975e-06,5.726889152251129e+18,-8.107392166712876e+25,935.98643669224,4.068077500350142e+25
1.3099999999999974e-06,5.574424887164832e+18,-8.26382845224469e+25,940.4654731018273,3.989946952379012e+25
1.3199999999999973e-06,5.426993112070877e+18,-8.416995192661631e+25,944.9304409331694,3.914440772047245e+25
1.3299999999999972e-06,5.284691306296044e+18,-8.566923169403628e+25,949.3814137965659,3.8415536440215927e+25
1.3399999999999971e-06,5.147531296077211e+18,-8.71366001628082e+25,953.8184662176136,3.7712468664313353e+25
1.349999999999997e-06,5.015458545271079e+18,-8.857266317607963e+25,958.2416735817053,3.703456320256714e+25
1.359999999999997e-06,4.888368471861942e+18,-8.99781209915331e+25,962.651112080115,3.638099374574088e+25
1.3699999999999968e-06,4.76612005771133e+18,-9.135373761133616e+25,967.0468586576794,3.5750807541094527e+25
1.3799999999999967e-06,4.648547038450829e+18,-9.270031477408822e+25,971.4289909620759,3.51429741480799e+25
1.3899999999999966e-06,4.535466961047722e+18,-9.401867061676236e+25,975.7975872946874,3.4556424919904955e+25
1.3999999999999965e-06,4.426688386460446e+18,-9.53096228106105e+25,980.1527265630392,3.3990084024374096e+25
1.4099999999999965e-06,4.322016498995862e+18,-9.657397581106395e+25,984.4944882347851,3.3442891947294634e+25
1.4199999999999964e-06,4.22125736531177e+18,-9.781251174456084e+25,988.8229522932185,3.291382250191615e+25
1.4299999999999963e-06,4.1242210658704886e+18,-9.90259843868404e+25,993.1381991942803,3.2401894393602234e+25
1.4399999999999962e-06,4.030723900654318e+18,-1.0021511566466656e+26,997.4403098250312,3.190617836268304e+25
1.449999999999996e-06,3.9405898493991747e+18,-1.0138059412937118e+26,1001.7293654635586,3.142580085840966e+25
1.459999999999996e-06,3.853651444756378e+18,-1.0252307489677133e+26,1006.0054477402812,3.0959945094890028e+25
1.4699999999999959e-06,3.769750195017178e+18,-1.0364318061371143e+26,1010.26863860062,3.050785021883556e+25
1.4799999999999958e-06,3.68873667179898e+18,-1.047415030869225e+26,1014.519020268998,3.006880919117244e+25
1.4899999999999957e-06,3.610470357917136e+18,-1.0581860528677724e+26,1018.7566752141355,2.9642165860254108e+25
1.4999999999999956e-06,3.534819332046321e+18,-1.0687502351058238e+26,1022.9816861156037,2.9227311590938065e+25
1.5099999999999955e-06,3.4616598501095706e+18,-1.0791126955320196e+26,1027.1941358316049,2.882368171563859e+25
1.5199999999999954e-06,3.39087586887807e+18,-1.0892783278501926e+26,1031.3941073679403,2.843075199252006e+25
1.5299999999999953e-06,3.322358545120655e+18,-1.0992518207809299e+26,1035.5816838481335,2.8048035192127617e+25
1.5399999999999952e-06,3.2560057337620065e+18,-1.1090376755160103e+26,1039.7569484846792,2.767507788545971e+25
1.5499999999999951e-06,3.191721500728791e+18,-1.1186402212874008e+26,1043.9199845513747,2.731145747151334e+25
1.559999999999995e-06,3.1294156602394685e+18,-1.1280636291091333e+26,1048.0708753567133,2.695677945814659e+25
1.569999999999995e-06,3.069003341941136e+18,-1.1373119238303776e+26,1052.2097042182963,2.6610674994246908e+25
1.5799999999999948e-06,3.010404590221442e+18,-1.1463889946774756e+26,1056.3365544382434,2.6272798641494805e+25
1.5899999999999947e-06,2.9535439959478113e+18,-1.1552986044744494e+26,1060.4515092795607,2.5942826368670582e+25
1.5999999999999946e-06,2.898350359564055e+18,-1.1640443977262074e+26,1064.5546519434452,2.562045374906227e+25
1.6099999999999945e-06,2.844756383699776e+18,-1.1726299077334808e+26,1068.6460655474905,2.530539434104439e+25
1.6199999999999944e-06,2.79269839305565e+18,-1.181058562888901e+26,1072.7258331047685,2.499737823256215e+25
1.6299999999999943e-06,2.742116079190867e+18,-1.1893336922828113e+26,1076.7940375037606,2.469615073155553e+25
1.6399999999999943e-06,2.692952267864135e+18,-1.1974585307273419e+26,1080.8507614891075,2.440147118595929e+25
1.6499999999999942e-06,2.645152706700075e+18,-1.205436223289251e+26,1084.8960876431559,2.4113111918600957e+25
1.659999999999994e-06,2.598665871123112e+18,-1.2132698294061944e+26,1088.9300983682747,2.3830857263966067e+25
1.669999999999994e-06,2.553442786691484e+18,-1.220962326647773e+26,1092.9528758699164,2.3554502695337916e+25
1.6799999999999939e-06,2.509436866156083e+18,-1.228516614171586e+26,1096.9645021403985,2.3283854032217216e+25
1.6899999999999938e-06,2.466603759752038e+18,-1.2359355159154273e+26,1100.965058943385,2.3018726719172977e+25
1.6999999999999937e-06,2.424901217399602e+18,-1.2432217835593888e+26,1104.954627799042,2.2758945168375075e+25
1.7099999999999936e-06,2.384288961642878e+18,-1.2503780992856742e+26,1108.9332899698472,2.250434215902016e+25
1.7199999999999935e-06,2.3447285702897905e+18,-1.2574070783592023e+26,1112.9011264470323,2.22547582876983e+25
1.7299999999999934e-06,2.306183367835558e+18,-1.2643112715481947e+26,1116.8582179376356,2.2010041464473486e+25
1.7399999999999933e-06,2.2686183248558564e+18,-1.2710931674009534e+26,1120.8046448521484,2.1770046450079326e+25
1.7499999999999932e-06,2.231999964646765e+18,-1.2777551943925314e+26,1124.740487292732,2.153463443017614e+25
1.759999999999993e-06,2.1962962764677711e+18,-1.2842997229530456e+26,1128.6658250419898,2.1303672623086406e+25
1.769999999999993e-06,2.1614766348133888e+18,-1.2907290673877635e+26,1132.5807375522722,2.1077033917835607e+25
1.779999999999993e-06,2.1275117241993626e+18,-1.2970454876978092e+26,1136.4853039355023,2.0854596539680594e+25
1.7899999999999928e-06,2.094373469002486e+18,-1.3032511913092327e+26,1140.3796029534983,2.0636243740617e+25
1.7999999999999927e-06,2.0620349679395474e+18,-1.309348334717331e+26,1144.2637130087828,2.042186351262786e+25
1.8099999999999926e-06,2.030470432811915e+18,-1.3153390250523284e+26,1148.137712135858,2.021134832167155e+25
1.8199999999999925e-06,1.9996551311783936e+18,-1.3212253215719189e+26,1152.0016779929324,2.000459486061411e+25
1.8299999999999924e-06,1.9695653326510287e+18,-1.3270092370856482e+26,1155.8556878540862,1.980150381949407e+25
1.8399999999999923e-06,1.940178258536899e+18,-1.3326927393155906e+26,1159.6998186018554,1.9601979671667435e+25
1.8499999999999922e-06,1.911472034574243e+18,-1.3382777521974802e+26,1163.5341467202277,1.940593047452342e+25
1.8599999999999921e-06,1.883425646533801e+18,-1.343766157125994e+26,1167.3587482880287,1.9213267683586575e+25
1.869999999999992e-06,1.8560188984764257e+18,-1.3491597941476466e+26,1171.1736989726905,1.9023905978933199e+25
