t(s),Adsorbed H on surface 1 (H m-2),solute flux surface 1 (H m-2 s-1),Total T surface 1 (K),0 value at [0] (H m-3)
1e-10,0.18268825084681428,-1868856299.6546855,300.26773102758995,13080865696074.283
2e-10,0.5498541151371195,-3755871442.01676,300.3108062765495,26234532564603.85
3e-10,1.102869594867492,-5656778384.123841,300.34540794028067,39446968884512.61
4e-10,1.8429634446333327,-7570109943.005397,300.3762180040032,52711953248238.375
5e-10,2.7712974524450518,-9495178120.154701,300.4049795639407,66026176086502.16
6e-10,3.889001857516869,-11431656825.74831,300.432557761748,79387777625005.77
7e-10,5.197195599155397,-13379426870.487434,300.4594563983081,92795746369917.58
7.999999999999999e-10,6.696999449919207,-15338503220.594776,300.4860010569201,106249622730608.52
8.999999999999999e-10,8.38954533490443,-17308995995.024727,300.5124185302216,119749335034990.8
9.999999999999999e-10,10.27598342129027,-19291087655.190582,300.5388761855528,133295101190690.6
1.1e-09,12.357487824160447,-21285018843.72864,300.56550342836744,146887366164117.84
1.2e-09,14.635261417676341,-23291079223.638435,300.5924042781695,160526760469922.9
1.3e-09,17.110540052373484,-25309601392.630432,300.6196651646568,174214071708455.25
1.4000000000000001e-09,19.784596373114987,-27340956786.38193,300.64735998587696,187950224591675.25
1.5000000000000002e-09,22.65874336900966,-29385552924.124878,300.67555351579944,201736266710413.06
1.6000000000000003e-09,25.73433774730636,-31443831594.652092,300.7043037738883,215573358317060.5
1.7000000000000003e-09,29.01278319796643,-33516267723.84049,300.73366371828064,229462765000724.53
1.8000000000000004e-09,32.4955335988272,-35603368751.92009,300.76368248461904,243405852502245.28
1.9000000000000005e-09,36.18409619986054,-37705674403.732315,300.7944063115862,257404083151886.34
2.0000000000000005e-09,40.08003481712545,-39823756771.05487,300.82587924540604,271459013566616.84
2.1000000000000006e-09,44.184973061455,-41958220650.058716,300.8581436852351,285572293347479.75
2.2000000000000007e-09,48.50059762296975,-44109704093.43654,300.89124081196104,299745664588789.2
2.3000000000000007e-09,53.02866162969388,-46278879148.3113,300.92521093019445,313980962060960.5
2.400000000000001e-09,57.77098809654636,-48466452759.34112,300.9600937447044,328280113964639.0
2.500000000000001e-09,62.72947347957292,-50673167822.52926,300.99592858670644,342645143179947.7
2.600000000000001e-09,67.90609134932335,-52899804379.81013,301.0327546013427,357078168954084.6
2.700000000000001e-09,73.30289619666104,-55147180947.97567,301.0706109048134,371581408985144.6
2.800000000000001e-09,78.92202738394067,-57416155978.237274,301.10953671754675,386157181871265.7
2.900000000000001e-09,84.7657132543552,-59707629444.910385,301.14957147828505,400807909902960.44
3.0000000000000012e-09,90.83627541229464,-62022544563.509254,301.1907549428516,415536122183437.4
3.1000000000000013e-09,97.13613318775101,-64361889640.06185,301.23312727053116,430344458067324.8
3.2000000000000014e-09,103.66780829812568,-66726700054.774414,301.27672910036955,445235670912827.25
3.3000000000000014e-09,110.43392972123374,-69118060384.35675,301.32160161921905,460212632146222.4
3.4000000000000015e-09,117.43723879384655,-71537106668.40442,301.3677866229899,475278335640930.0
3.5000000000000016e-09,124.68059455076076,-73985028826.25356,301.41532657228083,490435902416303.44
3.6000000000000016e-09,132.16697932012858,-76463073231.71965,301.46426464334024,505688585663911.3
3.7000000000000017e-09,139.89950459162708,-78972545454.09961,301.5146447751323,521039776111478.9
3.800000000000002e-09,147.88141717498596,-81514813174.80748,301.5665117131425,536493007736915.3
3.900000000000002e-09,156.11610566743488,-84091309290.01021,301.6199110504467,552051963847010.7
4.000000000000002e-09,164.60710724977818,-86703535210.68094,301.67488926647655,567720483537501.4
4.100000000000002e-09,173.3581148320587,-89353064372.56038,301.7314937638417,583502568553295.2
4.200000000000002e-09,182.37298457114377,-92041545969.6815,301.7897729035111,599402390569767.8
4.300000000000002e-09,191.655743784059,-94770708926.31956,301.8497760386055,615424298918200.4
4.400000000000002e-09,201.2105992825189,-97542366123.54298,301.9115535470149,631572828780668.2
4.500000000000002e-09,211.04194615586843,-100358418897.93102,301.9751568630206,647852709882012.6
4.600000000000002e-09,221.15437703156536,-103220861831.53888,302.04063850807535,664268875708979.9
4.700000000000002e-09,231.55269184441326,-106131787853.81076,302.10805212087104,680826473289196.0
4.8000000000000024e-09,242.24190814801167,-109093393677.90666,302.1774524868042,697530873565390.6
4.9000000000000025e-09,253.22727200434076,-112107985595.81856,302.2488955669354,714387682403215.8
5.0000000000000026e-09,264.51426949005554,-115177985658.724,302.32243852652147,731402752274139.6
5.100000000000003e-09,276.1086388609523,-118305938271.29434,302.398139763192,748582194658262.4
5.200000000000003e-09,288.0163834192047,-121494517231.11761,302.47605893482745,765932393215519.1
5.300000000000003e-09,300.2437851313732,-124746533247.10709,302.5562569871921,783460017777642.6
5.400000000000003e-09,312.7974190488933,-128064941973.6693,302.63879618136315,801172039217469.1
5.500000000000003e-09,325.68416858677415,-131452852600.63823,302.7237401209954,819075745256730.4
5.600000000000003e-09,338.91124172061984,-134913537042.46805,302.81115377945235,837178757278407.8
5.700000000000003e-09,352.48618816685234,-138450439774.0309,302.9011035268315,855489048215076.9
5.800000000000003e-09,366.4169176162111,-142067188364.56763,302.99365715690647,874014961590469.0
5.900000000000003e-09,380.7117190962638,-145767604765.95874,303.08888391400603,892765231797784.4
6.000000000000003e-09,395.37928154483694,-149555717416.55508,303.18685451984607,911749005705142.1
6.100000000000003e-09,410.42871568301285,-153435774227.3686,303.28764120032764,930975865686003.2
6.200000000000003e-09,425.8695772836966,-157412256523.5568,303.391317712313,950455854180522.2
6.3000000000000035e-09,441.7118919397974,-161489894020.86472,303.49795937038766,970199499902619.6
6.4000000000000035e-09,457.9661814448613,-165673680924.11316,303.60764307361524,990217845817210.6
6.500000000000004e-09,474.64349190861174,-169968893243.0031,303.7204473322909,1010522479022538.1
6.600000000000004e-09,491.75542374039395,-174381107429.52164,303.83645229469624,1031125562684042.6
6.700000000000004e-09,509.31416364506333,-178916220451.19867,303.95573977385686,1052039870178741.8
6.800000000000004e-09,527.3325187885238,-183580471425.47165,304.0783932743053,1073278821622806.4
6.900000000000004e-09,545.8239533040198,-188380464952.56845,304.2044980188467,1094856522970017.5
7.000000000000004e-09,564.802627325553,-193323196297.79208,304.3341409753263,1116787807885204.2
7.100000000000004e-09,584.2834387515762,-198416078589.0018,304.4674108833968,1139088282614751.8
7.200000000000004e-09,604.2820679605804,-203666972211.5967,304.6043982812804,1161774374095970.0
7.300000000000004e-09,624.8150257205145,-209084216601.659,304.7451955325226,1184863381568731.8
7.400000000000004e-09,645.8997045563787,-214676664658.25922,304.88989685273145,1208373531976511.0
7.500000000000004e-09,667.5544338650287,-220453720018.5324,305.0385983362964,1232324039469998.5
7.600000000000004e-09,689.7985390934938,-226425377464.30786,305.19139798307975,1256735169355093.5
7.700000000000003e-09,712.6524053272217,-232602266757.0646,305.3483957250743,1281628306858548.5
7.800000000000002e-09,736.1375456679613,-238995700229.1642,305.5096934530172,1307026031119167.0
7.900000000000001e-09,760.2766748178317,-245617724494.11414,305.67539504295297,1332952194850584.8
8e-09,785.0937883269308,-252481176677.42258,305.84560638273564,1359432010163671.5
8.1e-09,810.6142480070607,-259599745612.96857,306.02043539846,1386492141082899.8
8.199999999999999e-09,836.8648740643282,-266988038498.29053,306.1999920808122,1414160803342120.0
8.299999999999998e-09,863.8740445591005,-274661653556.45517,306.3843885113282,1442467872101586.8
8.399999999999997e-09,891.6718028637291,-282637259312.9445,306.57373888854926,1471444998290386.8
8.499999999999997e-09,920.289973857357,-290932681164.1237,306.76815955406175,1501125734347308.2
8.599999999999996e-09,949.7622896738538,-299566995990.3358,306.96776901841025,1531545670209390.5
8.699999999999995e-09,980.1245259044397,-308560635652.5516,307.1726879868701,1562742580481750.5
8.799999999999994e-09,1011.4146492519732,-317935500308.0913,307.3830393850668,1594756583815734.5
8.899999999999994e-09,1043.672977740427,-327715082589.61237,307.5989483844285,1627630315626035.5
8.999999999999993e-09,1076.9423547021825,-337924603814.05,307.8205424274579,1661409115392355.8
9.099999999999992e-09,1111.268337899042,-348591163526.24066,308.0479512528085,1696141229918761.8
9.199999999999991e-09,1146.699405282135,-359743903837.881,308.2813069201514,1731878034065639.5
9.29999999999999e-09,1183.2871790632405,-371414190198.58936,308.5207438348169,1768674270626736.0
9.39999999999999e-09,1221.0866699578871,-383635810435.0585,308.76639877219577,1806588311199087.8
9.499999999999989e-09,1260.156543671601,-396445194119.8815,309.0184109018837,1845682440088857.0
9.599999999999988e-09,1300.5594119379884,-409881654587.2836,309.27692181155413,1886023163513578.0
9.699999999999988e-09,1342.3621506845102,-423987656203.0941,309.54207553054135,1927681546603838.8
9.799999999999987e-09,1385.6362482028992,-438809109825.7551,309.81401855311873,1970733580978043.0
9.899999999999986e-09,1430.4581865408672,-454395699769.76337,310.09289986145296,2015260585966087.2
9.999999999999985e-09,1476.9098597153964,-470801246009.3655,310.37887094821923,2061349646895520.8
1.0099999999999985e-08,1525.079032781674,-488084105846.10925,310.6720858388577,2109094094231460.0
1.0199999999999984e-08,1575.0598462826947,-506307619818.0412,310.972701113454,2158594027784282.0
1.0299999999999983e-08,1626.9533711608672,-525540607261.17523,311.2808759282256,2209956890672655.0
1.0399999999999982e-08,1680.8682198440304,-545857917657.23346,311.59677203659544,2263298098260280.5
1.0499999999999982e-08,1736.9212199349638,-567341044729.552,311.9205538098337,2318741727880227.5
1.059999999999998e-08,1795.238157748275,-590078811197.5667,312.25238825724864,2376421275829302.0
1.069999999999998e-08,1855.9545998659978,-614168133188.2351,312.5924450459081,2436480488866134.0
1.079999999999998e-08,1919.2168019400824,-639714874552.0011,312.9408965198704,2499074278291383.0
1.0899999999999978e-08,1985.1827151756868,-666834802767.095,313.2979177189067,2564369725639119.0
1.0999999999999978e-08,2054.023102306345,-695654659768.8278,313.6636863966934,2632547190079102.0
1.1099999999999977e-08,2125.922776446941,-726313362945.0883,314.0383830384551,2703801528836534.5
1.1199999999999976e-08,2201.081978013429,-758963353736.3044,314.42219087803795,2778343443297240.5
1.1299999999999975e-08,2279.717906965003,-793772113815.5076,314.81529591439175,2856400965003193.5
1.1399999999999975e-08,2362.0664299962627,-830923871758.1462,315.21788692744116,2938221097479922.5
1.1499999999999974e-08,2448.3839850322634,-870621526507.7794,315.63015549332425,3024071631801040.5
1.1599999999999973e-08,2538.949708514633,-913088817880.4423,316.0522959989782,3114243156017536.0
1.1699999999999972e-08,2634.067814578271,-958572778918.5469,316.4845056560501,3209051281096559.5
1.1799999999999972e-08,2734.0702593829305,-1007346510212.3666,316.9269845141112,3308839108867752.0
1.1899999999999971e-08,2839.31972867302,-1059712322480.6107,317.3799354731549,3413979970712132.0
1.199999999999997e-08,2950.2129921987707,-1116005300890.9355,317.8435642953544,3524880469403838.5
1.209999999999997e-08,3067.1846750678524,-1176597352984.591,318.3180796160604,3641983860691369.5
1.2199999999999969e-08,3190.71150355597,-1241901811856.1814,318.80369295401573,3765773815954548.5
1.2299999999999968e-08,3321.3170915616747,-1312378677679.318,319.3006187207657,3896778612679434.0
1.2399999999999967e-08,3459.5773439495706,-1388540594057.0586,319.8090742292421,4035575805651510.0
1.2499999999999966e-08,3606.1265647293035,-1470959671363.7468,320.3292797014984,4182797438788162.0
1.2599999999999966e-08,3761.664371651513,-1560275287650.0356,320.86145827557493,4339135865542090.5
1.2699999999999965e-08,3926.963534705236,-1657203019302.8354,321.40583601147154,4505350254954971.0
1.2799999999999964e-08,4102.8788745758375,-1762544879080.0168,321.9626418962052,4682273870895368.0
1.2899999999999963e-08,4290.357378845397,-1877201069084.1343,322.5321078479315,4870822223973199.0
1.2999999999999963e-08,4490.449719155151,-2002183491546.0298,323.11446871910726,5072002209312337.0
1.3099999999999962e-08,4704.323382376446,-2138631301971.118,323.7099622986721,5286922359046675.0
1.3199999999999961e-08,4933.277663855782,-2287828838470.5835,324.31882931322775,5516804356388401.0
1.329999999999996e-08,5178.760811968807,-2451226319411.7363,324.9413134271922,5762995978754335.0
1.339999999999996e-08,5442.389661681466,-2630463770622.655,325.5776612419077,6026985661137795.0
1.3499999999999959e-08,5725.97215194138,-2827398725374.8364,326.2281222936802,6310418898156748.0
1.3599999999999958e-08,6031.533189145943,-3044138337770.9995,326.8929490507285,6615116734548335.0
1.3699999999999957e-08,6361.344398617504,-3283076666026.393,327.57239690902236,6943096629960343.0
1.3799999999999956e-08,6717.958400314351,-3546938020122.96,328.2667241869872,7296596025461874.0
1.3899999999999956e-08,7104.2483567473655,-3838827432869.5396,328.9761921190541,7678098987132813.0
1.3999999999999955e-08,7523.453673657959,-4162289509878.6997,329.7010648480348,8090366357412580.0
1.4099999999999954e-08,7979.232891539955,-4521377148857.931,330.4416094162999,8536469908781193.0
1.4199999999999953e-08,8475.72499349615,-4920731899772.011,331.1980957557397,9019831068195186.0
1.4299999999999953e-08,9017.620578172158,-5365678074398.689,331.97079667648705,9544264866125820.0
1.4399999999999952e-08,9610.244612812612,-5862333118152.332,332.7599878543819,1.0114029862937376e+16
1.4499999999999951e-08,10259.652799558291,-6417737242868.297,333.5659478171575,1.0733884919909648e+16
1.459999999999995e-08,10972.743968511679,-7040005903659.391,334.3889579293281,1.1409153815035896e+16
1.469999999999995e-08,11757.391366656217,-7738509406853.241,335.2293023757584,1.2145798857842244e+16
1.4799999999999949e-08,12622.59625798031,-8524084784861.784,336.0872681438961,1.2950504836420542e+16
1.4899999999999948e-08,13578.667906046054,-9409286098714.35,336.9631450046474,1.3830774837798086e+16
1.499999999999995e-08,14637.43479877646,-10408680567917.574,337.85722549187784,1.4795039724554054e+16
1.509999999999995e-08,15812.492924464688,-11539199426792.312,338.7698048805188,1.5852783331947924e+16
1.519999999999995e-08,17119.498052153074,-12820554223455.295,339.7011811632628,1.7014685777456614e+16
1.5299999999999952e-08,18576.510350376575,-14275731482010.764,340.65165502582886,1.829278765640121e+16
1.5399999999999953e-08,20204.401346903982,-15931581326039.43,341.62152982078123,1.970067834253726e+16
1.5499999999999954e-08,22027.335251069326,-17819518917457.34,342.6111115398842,2.1253712131966268e+16
1.5599999999999954e-08,24073.339106177526,-19976361528822.46,343.6207087849759,2.29692565752992e+16
1.5699999999999955e-08,26374.979206262185,-22445328898682.44,344.65063273734614,2.486697805172791e+16
1.5799999999999956e-08,28970.164814548523,-25277240415097.33,345.70119712560154,2.6969170467268292e+16
1.5899999999999957e-08,31903.104602147654,-28531949874425.008,346.7727181920027,2.930113392881578e+16
1.5999999999999958e-08,35225.44655926898,-32280067370038.344,347.8655146572591,3.189161138040718e+16
1.609999999999996e-08,38997.63863249328,-36605028648572.016,348.97990768376684,3.4773292517220884e+16
1.619999999999996e-08,43290.555275351006,-41605585486794.016,350.116220837276,3.7983395850576856e+16
1.629999999999996e-08,48187.444792565475,-47398806856192.78,351.2747800469728,4.156434162386872e+16
1.639999999999996e-08,53786.26421473676,-54123700555948.28,352.45591356396596,4.556453042259011e+16
1.6499999999999962e-08,60202.48295932783,-61945589477284.14,353.6599519181629,5.0039244837611304e+16
1.6599999999999963e-08,67572.4543335692,-71061406791786.06,354.8872278735245,5.505169449598842e+16
1.6699999999999964e-08,76057.47578081382,-81706111472306.38,356.1380763816883,6.067422824623301e+16
1.6799999999999965e-08,85848.68561297572,-94160471321743.64,357.4128345339479,6.698974136773944e+16
1.6899999999999966e-08,97172.97698554554,-108760517171826.3,358.71184151157934,7.409331047639131e+16
1.6999999999999967e-08,110300.15052067081,-125909041696423.9,360.03543853450515,8.209409444958822e+16
1.7099999999999968e-08,125551.5770854574,-146089602568885.1,361.38396880828645,9.111754634694202e+16
1.719999999999997e-08,143310.70404773526,-169883596476610.25,362.75777746943544,1.0130798913846904e+17
1.729999999999997e-08,164035.81467420163,-197991102770972.03,364.1572115290406,1.1283161728401683e+17
1.739999999999997e-08,188275.54471175786,-231256359492632.25,365.58261981469724,1.258799970887192e+17
1.749999999999997e-08,216687.77697214935,-270698937930073.4,367.03435291073777,1.4067415158848072e+17
1.7599999999999972e-08,250062.6793742742,-317551934432482.1,368.51276309675507,1.5746933085051357e+17
1.7699999999999973e-08,289350.8311928189,-373308812014193.44,370.01820428441476,1.7656058642511882e+17
1.7799999999999974e-08,335697.60471616004,-439780914491191.9,371.55103195255214,1.9828928975104422e+17
1.7899999999999975e-08,390485.2457540468,-519168161407331.9,373.1116030805489,2.2305075918314246e+17
1.7999999999999976e-08,455384.43974114204,-614146036517194.5,374.70027607998884,2.513031896699593e+17
1.8099999999999977e-08,532417.5771777706,-727972735726207.0,376.3174107245884,2.8357811377899232e+17
1.8199999999999978e-08,624036.4636417835,-864621279242803.2,377.96336807840174,3.204926637168259e+17
1.829999999999998e-08,733217.8816552457,-1028942563722925.4,379.6385104222992,3.6276395236485843e+17
1.839999999999998e-08,863581.2369492857,-1226866791563403.5,381.3432011787189,4.1122594850211174e+17
1.849999999999998e-08,1019533.5510697282,-1465652539109818.5,383.07780483469327,4.668492889140315e+17
1.859999999999998e-08,1206448.3471295775,-1754195004700297.8,384.84268686315016,5.3076454988016794e+17
1.8699999999999982e-08,1430886.5802231107,-2103407825589045.5,386.63821364249293,6.042895948267341e+17
1.8799999999999983e-08,1700869.7693539986,-2526696413261886.5,388.464752374461,6.889617263589194e+17
1.8899999999999984e-08,2026217.9950893226,-3040545209143871.0,390.3226710002752,7.865755025651496e+17
1.8999999999999985e-08,2418968.5638217553,-3665246832352326.0,392.2123381150721,8.992272330846776e+17
1.9099999999999986e-08,2893895.0653345822,-4425808060074476.5,394.13412288063364,1.0293673542843055e+18
1.9199999999999987e-08,3469151.4660427556,-5353076302779007.0,396.08839493641693,1.179862100109283e+18
1.9299999999999988e-08,4167072.037938018,-6485141153522913.0,398.07552430889217,1.3540661417795707e+18
1.939999999999999e-08,5015165.639574292,-7869079257517392.0,400.0958813191952,1.5559081725894748e+18
1.949999999999999e-08,6047352.538187917,-9563127859011912.0,402.14983648910476,1.7899917719878057e+18
1.959999999999999e-08,7305504.090952979,-1.163939380621775e+16,404.23776044535236,2.0617143056938266e+18
1.969999999999999e-08,8841360.8161023,-1.418723161835366e+16,406.3600238222752,2.377407117396401e+18
1.9799999999999992e-08,10718923.469572065,-1.7317457801230996e+16,408.5169971628234,2.744500856168042e+18
1.9899999999999993e-08,13017435.690042552,-2.116761063813142e+16,410.7090508179327,3.17172047804616e+18
1.9999999999999994e-08,15835106.827967558,-2.5908517303610988e+16,412.9365548442758,3.6693152789989484e+18
2.0099999999999995e-08,19293761.293155145,-3.1752495999319256e+16,415.1998789004044,4.249330281637004e+18
2.0199999999999996e-08,23544648.09956696,-3.8963603199378184e+16,417.4993921412968,4.925926435248156e+18
2.0299999999999996e-08,28775703.713118155,-4.7870439140754536e+16,419.8354631113263,5.715758428093818e+18
