t(s),Adsorbed H on surface 1 (H m-2),solute flux surface 1 (H m-2 s-1),Total T surface 1 (K),0 value at [0] (H m-3)
1e-10,0.18391175492699938,-1880600854.7372491,300.30531568752747,13144289520291.684
2e-10,0.5543798417335355,-3788063231.9417734,300.36849342332994,26395936888557.777
3e-10,1.1134391248385025,-5716156016.629523,300.4192433723536,39734436677637.24
4e-10,1.862917025029021,-7662754771.052325,300.46443234779684,53150735071643.59
5e-10,2.8045456262745763,-9626879727.208796,300.50661690777144,66640053255167.94
6e-10,3.9400138688512554,-11608084203.000698,300.5470659391818,80199744280609.08
7e-10,5.2709975176900725,-13606227571.818779,300.58651835947114,93828411523268.86
7.999999999999999e-10,6.799178718091481,-15621368847.250677,300.62545169907196,107525474564950.86
8.999999999999999e-10,8.526259982770176,-17653709750.305534,300.66419859505265,121290929241186.75
9.999999999999999e-10,10.453974935253203,-19703561533.17413,300.7030045273848,135125203987236.34
1.1e-09,12.584097052366424,-21771324502.740906,300.74205929882874,149029068748407.88
1.2e-09,14.918447125269996,-23857474896.83948,300.7815154797697,163003574744524.34
1.3e-09,17.458899882546604,-25962556292.92588,300.8214998426504,177050013415823.38
1.4000000000000001e-09,20.20739006325232,-28087173958.727043,300.8621207806676,191169887867632.06
1.5000000000000002e-09,23.165918135338764,-30231991199.187828,300.903473305601,205364892789201.2
1.6000000000000003e-09,26.336555797464676,-32397727112.88752,300.94564252323806,219636900319877.84
1.7000000000000003e-09,29.721451365354607,-34585155380.935684,300.98870611675176,233987950220298.5
1.8000000000000004e-09,33.32283511951981,-36795103839.30751,301.0327361637032,248420243249775.9
1.9000000000000005e-09,37.14302467472681,-39028454666.46371,301.07780049354204,262936136996648.2
2.0000000000000005e-09,41.18443042033452,-41286145070.88674,301.12396372092525,277538143634781.06
2.1000000000000006e-09,45.4495610728249,-43569168398.62256,301.171288045677,292228929231754.9
2.2000000000000007e-09,49.94102937645067,-45878575605.374245,301.2198338817481,307011314339251.3
2.3000000000000007e-09,54.66155798421534,-48215477054.99352,301.26966035886164,321888275670103.25
2.400000000000001e-09,59.61398554892251,-50581044618.77579,301.320825728012,336862948719646.5
2.500000000000001e-09,64.80127305246873,-52976514059.295494,301.3733876934172,351938631228007.56
2.600000000000001e-09,70.22651040069184,-55403187689.66536,301.4274036875573,367118787409114.94
2.700000000000001e-09,75.8929233107752,-57862437304.708755,301.48293110170374,382407052894450.1
2.800000000000001e-09,81.80388051834534,-60355707385.081345,301.54002748130983,397807240356843.0
2.900000000000001e-09,87.96290133191144,-62884518579.18592,301.59875069341547,413323345793353.0
3.0000000000000012e-09,94.37366356313231,-65450471471.01149,301.6591590715877,428959555457435.6
3.1000000000000013e-09,101.04001186252546,-68055250644.97786,301.7213115426993,444720253439888.56
3.2000000000000014e-09,107.96596649163214,-70700629061.5886,301.7852677389266,460610029905998.06
3.3000000000000014e-09,115.15573256431054,-73388472760.29366,301.8510880976464,476633690003264.5
3.4000000000000015e-09,122.61370979174139,-76120745908.50484,301.91883395137336,492796263460344.75
3.5000000000000016e-09,130.34450276789718,-78899516218.26099,301.98856760945927,509103014903645.5
3.6000000000000016e-09,138.35293183465487,-81726960754.6438,302.06035243294923,525559454923492.44
3.7000000000000017e-09,146.6440445684327,-84605372162.76247,302.1342529037316,542171351927140.56
3.800000000000002e-09,155.22312793321817,-87537165342.96452,302.2103346889117,558944744821177.1
3.900000000000002e-09,164.0957211481472,-90524884606.976,302.28866470117936,575885956571213.4
4.000000000000002e-09,173.2676293214124,-93571211350.90703,302.3693111558037,593001608692234.8
4.100000000000002e-09,182.74493790625095,-96678972284.57089,302.45234362478664,610298636728671.4
4.200000000000002e-09,192.5340280391171,-99851148260.34753,302.53783308861625,627784306789212.1
4.300000000000002e-09,202.64159282491337,-103090883748.95285,302.6258519859919,645466233207704.8
4.400000000000002e-09,213.074654639382,-106401497013.97005,302.7164742618343,663352397408217.9
4.500000000000002e-09,223.84058352447767,-109786491041.92514,302.8097754138448,681451168059542.5
4.600000000000002e-09,234.94711675881223,-113249565290.07355,302.90583253783853,699771322612183.0
4.700000000000002e-09,246.40237969212748,-116794628320.00285,303.0047243720425,718322070319260.5
4.8000000000000024e-09,258.21490794027915,-120425811391.65582,303.10653134052194,737113076851841.5
4.9000000000000025e-09,270.39367104546614,-124147483099.56128,303.21133559587247,756154490629060.4
5.0000000000000026e-09,282.9480977154943,-127964265140.97545,303.3192210612997,775456970994143.1
5.100000000000003e-09,295.8881027658028,-131881049314.36295,303.43027347218657,795031718379136.6
5.200000000000003e-09,309.2241158988967,-135903015856.30688,303.5445804172367,814890506613922.2
5.300000000000003e-09,322.96711246783525,-140035653235.62872,303.66223137926966,835045717549056.1
5.400000000000003e-09,337.12864638362134,-144284779535.30762,303.78331777573163,855510378177264.5
5.500000000000003e-09,351.72088534087544,-148656565565.93506,303.9079329989786,876298200455165.2
5.600000000000003e-09,366.75664855218497,-153157559868.965,304.03617245637764,897423624045155.2
5.700000000000003e-09,382.24944719917596,-157794715784.21106,304.16813361026874,918901862217564.2
5.800000000000003e-09,398.21352782783185,-162575420773.9972,304.3039160178202,940748951175326.4
5.900000000000003e-09,414.66391893709977,-167507528216.38428,304.44362137080844,962981803087786.2
6.000000000000003e-09,431.6164810336036,-172599391902.15387,304.5873535353452,985618263147058.2
6.100000000000003e-09,449.0879604515922,-177859903495.0871,304.73521859157415,1008677170989897.0
6.200000000000003e-09,467.09604726637997,-183298533242.77945,304.88732487335324,1032178426860579.4
6.3000000000000035e-09,485.6594376618214,-188925374256.197,305.04378300793593,1056143062926212.9
6.4000000000000035e-09,504.79790114817416,-194751190710.79974,305.20470595566337,1080593320195526.5
6.500000000000004e-09,524.5323530664651,-200787470360.78778,305.37020904967443,1105552731535999.6
6.600000000000004e-09,544.8849328596664,-207046481801.44473,305.5404100356409,1131046211332616.2
6.700000000000004e-09,565.879088640142,-213541336963.19437,305.71542911153006,1157100152385116.5
6.800000000000004e-09,587.5396686375624,-220286059375.63474,305.8953889673978,1183742530699961.8
6.900000000000004e-09,609.8930201724911,-227295658801.19193,306.08041482521236,1211003018898997.0
7.000000000000004e-09,632.9670968689053,-234586212907.0467,306.270634478706,1238913109039724.5
7.100000000000004e-09,656.7915748949284,-242174956721.74692,306.46617833325337,1267506245723063.5
7.200000000000004e-09,681.3979791060246,-250080380710.4958,306.66717944577164,1296817970454396.5
7.300000000000004e-09,706.8198200599975,-258322338401.94476,306.8737735646363,1326886078323657.2
7.400000000000004e-09,733.0927429796624,-266922164610.95358,307.08609916960717,1357750788181443.2
7.500000000000004e-09,760.2546898585218,-275902805427.9683,307.30429751175603,1389454927611947.5
7.600000000000004e-09,788.3460760388807,-285288961288.5329,307.5285126533875,1422044134141491.2
7.700000000000003e-09,817.4099827425514,-295107244598.28186,307.7588915079435,1455567074275306.5
7.800000000000002e-09,847.4923672038576,-305386353572.37366,307.9955838798804,1490075682126952.0
7.900000000000001e-09,878.6422922456201,-316157264156.7919,308.23874250450837,1525625419596570.5
8e-09,910.9121773541352,-327453442135.96783,308.4885230877791,1562275560268637.5
8.1e-09,944.358073552232,-339311077800.91614,308.74508434601046,1600089499439777.5
8.199999999999999e-09,979.0399646441801,-351769345859.47186,309.008588045534,1639135092955881.8
8.299999999999998e-09,1015.0220977170203,-364870693620.808,309.2791990422499,1679485027838838.0
8.399999999999997e-09,1052.3733461349245,-378661160886.90344,309.55708532107576,1721217228020903.8
8.499999999999997e-09,1091.167608662436,-393190735441.4835,309.84241803527266,1764415298883843.8
8.599999999999996e-09,1131.484248805735,-408513748551.1346,310.1353715456319,1809169014725905.0
8.699999999999995e-09,1173.4085789763803,-424689315494.1071,310.43612345950675,1855574853758679.5
8.799999999999994e-09,1217.0323946684662,-441781826821.6965,310.74485466966985,1903736585774992.2
8.899999999999994e-09,1262.4545645084854,-459861496849.25757,311.0617493929805,1953765918236208.2
8.999999999999993e-09,1309.7816827997372,-479004976785.0135,311.3869952088408,2005783207212010.0
9.099999999999992e-09,1359.1287920542693,-499296040954.43933,311.7207830974236,2059918240378305.0
9.199999999999991e-09,1410.6201840017875,-520826355788.16125,312.06330747765134,2116311100151527.8
9.29999999999999e-09,1464.390288706194,-543696342638.9127,312.4147662449066,2175113116024059.2
9.39999999999999e-09,1520.5846627291462,-568016147108.7294,312.7753608084532,2236487916281625.8
9.499999999999989e-09,1579.3610887827863,-593906729437.9442,313.1452961285464,2300612590547559.0
9.599999999999988e-09,1640.890801041622,-621501092675.54,313.5247807532129,2367678976031605.5
9.699999999999988e-09,1705.3598522727475,-650945667866.6019,313.9140268546755,2437895081986547.5
9.799999999999987e-09,1772.9706412368146,-682401878416.8441,314.31325026540316,2511486668721900.5
9.899999999999986e-09,1843.9436214593663,-716047909197.0098,314.7226705137618,2588698999622224.0
9.999999999999985e-09,1918.5192155321606,-752080709915.1097,315.1425108592439,2669798787004693.0
1.0099999999999985e-08,1996.9599626460924,-790718266910.8315,315.5729983272524,2755076355369008.5
1.0199999999999984e-08,2079.5529311628857,-832202182931.9888,316.0143637434165,2844848048691130.5
1.0299999999999983e-08,2166.6124327980883,-876800610776.7688,316.46684176741354,2939458911947298.5
1.0399999999999982e-08,2258.4830805268757,-924811594094.6282,316.930670926274,3039285681091560.5
1.0499999999999982e-08,2355.543238771371,-976566877330.4625,317.40609364714373,3144740120324201.5
1.059999999999998e-08,2458.2089219431987,-1032436257007.767,317.8933562894788,3256272750767592.0
1.069999999999998e-08,2566.93820618715,-1092832558558.9263,318.3927091766475,3374377020711676.5
1.079999999999998e-08,2682.2362294261447,-1158217337062.1033,318.90440662691356,3499593974521450.5
1.0899999999999978e-08,2804.6608668119216,-1229107416938.8403,319.42870698377516,3632517485250354.5
1.0999999999999978e-08,2934.8291827590806,-1306082405388.9497,319.96587264563254,3773800125135796.5
1.1099999999999977e-08,3073.424777262991,-1389793337672.523,320.5161700947592,3924159758651395.0
1.1199999999999976e-08,3221.2061636296044,-1480972639992.1948,321.0798699255485,4084386954870941.5
1.1299999999999975e-08,3379.0163376217447,-1580445628526.5706,321.6572468720096,4255353329813316.0
1.1399999999999975e-08,3547.793725004347,-1689143802133.646,322.24857983448607,4438020945479454.0
1.1499999999999974e-08,3728.584726333154,-1808120232609.6343,322.85415190556864,4633452910805021.0
1.1599999999999973e-08,3922.5581155182595,-1938567411638.1519,323.47425039517594,4842825351137028.0
1.1699999999999972e-08,4131.0215933375775,-2081837979494.2688,324.109166854775,5067440937568290.0
1.1799999999999972e-08,4355.440850039987,-2239468839357.2446,324.75919710071366,5308744196080184.0
1.1899999999999971e-08,4597.461554109828,-2413209255380.0117,325.4246412366379,5568338849595648.0
1.199999999999997e-08,4858.934759153162,-2605053645678.962,326.1058036749655,5848007484486273.0
1.209999999999997e-08,5141.946310119571,-2817279917060.487,326.8029931573876,6149733877696867.0
1.2199999999999969e-08,5448.850936609561,-3052494351363.465,327.5165227743719,6475728372490250.0
1.2299999999999968e-08,5782.311848378588,-3313684249596.2314,328.2467099836369,6828456751100009.0
1.2399999999999967e-08,6145.346800639204,-3604279776705.269,328.99387662757135,7210673122752278.0
1.2499999999999966e-08,6541.381779622454,-3928226735547.4824,329.75834894956927,7625457427278744.0
1.2599999999999966e-08,6974.313678474793,-4290072344134.104,330.5404576092531,8076258249895505.0
1.2699999999999965e-08,7448.583597732882,-4695066508584.885,331.3405376965565,8566941754030194.0
1.2799999999999964e-08,7969.262722864152,-5149281591593.082,332.1589287446391,9101847669134234.0
1.2899999999999963e-08,8542.153115349623,-5659754292386.359,332.99597474160515,9685853422517162.0
1.2999999999999963e-08,9173.906217814132,-6234654003615.084,333.8520241409972,1.0324447682287124e+16
1.3099999999999962e-08,9872.162435327798,-6883482923461.492,334.7274298710389,1.1023814787093918e+16
1.3199999999999961e-08,10645.71583578388,-7617314314794.449,335.6225493425973,1.179093178301834e+16
1.329999999999996e-08,11504.708838756904,-8449076663485.277,336.5377444558384,1.2633680075118372e+16
1.339999999999996e-08,12460.86276719358,-9393893152138.148,337.47338160554693,1.3560974038521076e+16
1.3499999999999959e-08,13527.751360090886,-10469487904287.516,338.42983168508607,1.4582909330671108e+16
1.3599999999999958e-08,14721.125836910298,-11696672955507.826,339.40747008896625,1.5710934113260636e+16
1.3699999999999957e-08,16059.301927675951,-13099932981224.652,340.40667671399973,1.6958046942369188e+16
1.3799999999999956e-08,17563.6215131153,-14708128592444.123,341.4278359590114,1.83390257337783e+16
1.3899999999999956e-08,19259.004251898165,-16555343669853.143,342.47133672308235,1.9870692975560544e+16
1.3999999999999955e-08,21174.607925162167,-18681907955592.344,343.53757240229737,2.157222326363407e+16
1.4099999999999954e-08,23344.620349095716,-21135633225169.98,344.6269408849728,2.34655003039581e+16
1.4199999999999953e-08,25809.210777558983,-23973310150617.15,345.7398445453381,2.5575531788356544e+16
1.4299999999999953e-08,28615.67496708052,-27262523854889.344,346.8766902356467,2.7930932046515684e+16
1.4399999999999952e-08,31819.81579153024,-31083859666874.418,348.0378892766906,3.0564484148594736e+16
1.4499999999999951e-08,35487.61083036574,-35533587369236.06,349.22385744669504,3.351379523379317e+16
1.459999999999995e-08,39697.23015967429,-40726933108532.1,350.4350149685697,3.6822061333109976e+16
1.469999999999995e-08,44541.48220985744,-46802074141401.72,351.6717864954911,4.0538960914734856e+16
1.4799999999999949e-08,50130.78372142162,-53925024023074.02,352.9346010947954,4.4721699898171944e+16
1.4899999999999948e-08,56596.772415348576,-62295616345415.25,354.2238922301573,4.94362350662454e+16
1.499999999999995e-08,64096.709109737814,-72154845771848.1,355.5400977420332,5.475870778185462e+16
1.509999999999995e-08,72818.85106165877,-83793888512007.75,356.883659826348,6.077712584366991e+16
1.519999999999995e-08,82989.02206027858,-97565203838894.34,358.2550250114026,6.7593338377627944e+16
1.5299999999999952e-08,94878.65947626809,-113896217964570.56,359.6546441329836,7.532535708187437e+16
1.5399999999999953e-08,108814.6869040635,-133306216865170.89,361.08297230765254,8.41100871889787e+16
1.5499999999999954e-08,125191.64678664296,-156427232214182.94,362.54046890419835,9.410654350159978e+16
1.5599999999999954e-08,144486.63500693787,-184029902990006.88,364.02759751323134,1.0549964118141466e+17
1.5699999999999955e-08,167277.7145958435,-217055545425980.0,365.54482591490193,1.1850466808852346e+17
1.5799999999999956e-08,194266.6557151555,-256655979571402.2,367.0926260447268,1.3337256593523723e+17
1.5899999999999957e-08,226307.06316005602,-304243059393666.75,368.6714739575037,1.5039617200159488e+17
1.5999999999999958e-08,264439.2225310025,-361550357438194.7,370.281849789301,1.6991760246222547e+17
1.609999999999996e-08,309933.3368884141,-430710093070577.7,371.9242377175045,1.923369934592882e+17
1.619999999999996e-08,364343.25615054095,-514349201588397.06,373.5991259189076,2.1812285808300544e+17
1.629999999999996e-08,429573.3459732079,-615709466364742.2,375.3070065258299,2.478243677828599e+17
1.639999999999996e-08,507961.83228815685,-738797936848389.2,377.0483755802514,2.8208592710374253e+17
1.6499999999999962e-08,602384.8315531518,-888575507280213.2,378.82373298595,3.2166448303594784e+17
1.6599999999999963e-08,716386.3855102047,-1071193630976919.0,380.63358245862855,3.6745009710704166e+17
1.6699999999999964e-08,854341.227316238,-1294291816460299.8,382.4784314740225,4.2049041253812986e+17
1.6799999999999965e-08,1021658.795746073,-1567371952494233.0,384.35879121397636,4.8201977383629965e+17
1.6899999999999966e-08,1225039.2912791092,-1902269841277111.2,386.2751765104804,5.534939063054605e+17
1.6999999999999967e-08,1472795.4673698465,-2313749841195326.5,388.2281057876573,6.366312431851345e+17
1.7099999999999968e-08,1775257.5451521748,-2820255563672450.0,390.2181010016934,7.334622045462079e+17
1.719999999999997e-08,2145283.3520865208,-3444858556543085.5,392.2456875787051,8.463879919830474e+17
1.729999999999997e-08,2598901.799102176,-4216458381730541.0,394.31139435053547,9.7825077530933e+17
1.739999999999997e-08,3156125.491534506,-5171302152816548.0,396.41575348847596,1.1324175224166807e+18
1.749999999999997e-08,3841978.08488347,-6354910328459174.0,398.5593004349078,1.3128801738258053e+18
1.7599999999999972e-08,4687794.5482077375,-7824519500483306.0,400.7425738328611,1.5243754044095677e+18
1.7699999999999973e-08,5732868.557565849,-9652183530629412.0,402.96611545348736,1.7725278644788959e+18
1.7799999999999974e-08,7026541.800399237,-1.1928713546539148e+16,405.23047012144485,2.064021572692825e+18
1.7899999999999975e-08,8630856.302062294,-1.4768687398364332e+16,407.53618563819657,2.4068050702001423e+18
1.7999999999999976e-08,10623924.622992236,-1.831682326474456e+16,409.88381270321895,2.8103370703171635e+18
1.8099999999999977e-08,13104216.019834612,-2.2756094098768176e+16,412.2739048331244,3.285880688323463e+18
1.8199999999999978e-08,16196012.114671119,-2.8318064531593188e+16,414.7070182786994,3.846855956380116e+18
1.829999999999998e-08,20056356.739792727,-3.529606610888899e+16,417.18371193985996,4.509262272644177e+18
1.839999999999998e-08,24883915.87385246,-4.406199850677286e+16,419.70454727852956,5.292184765261862e+18
1.849999999999998e-08,30930280.67729171,-5.5087764108936344e+16,422.2700882294445,6.218401347312876e+18
1.859999999999998e-08,38514396.913715646,-6.897262435907725e+16,424.8809011088912,7.315110588847418e+18
1.8699999999999982e-08,48040996.93612541,-8.647812563453085e+16,427.5375545213846,8.614804545177097e+18
1.8799999999999983e-08,60024158.02068891,-1.0857270167964741e+17,430.2406192642927,1.0156315485388358e+19
1.8899999999999984e-08,75117428.66711459,-1.364886464648969e+17,432.9906682304178,1.1986071214792e+19
1.8999999999999985e-08,94152372.45814514,-1.7179490076631302e+17,435.7882763085441,1.4159600561550057e+19
1.9099999999999986e-08,118187902.69529003,-2.164900523389692e+17,438.63402028196094,1.6743338816691845e+19
1.9199999999999987e-08,148573452.9914213,-2.731211698219542e+17,441.5284787249749,1.9816792733586457e+19
1.9299999999999988e-08,187029891.15766358,-3.449356461203225e+17,444.4722318974215,2.3475136409829736e+19
1.939999999999999e-08,235753189.62989157,-4.36075208680703e+17,447.46586163719235,2.783232334832382e+19
1.949999999999999e-08,297547283.8253818,-5.518237765086212e+17,450.5099512507895,3.302481664598335e+19
1.959999999999999e-08,375994367.7127713,-6.989240517804329e+17,453.6050854019239,3.9216059083597775e+19
1.969999999999999e-08,475673205.24553716,-8.859818100548753e+17,456.75184999817424,4.66018284714556e+19
1.9799999999999992e-08,602439019.6714239,-1.1239820272235679e+18,459.9508320757223,5.541665162586243e+19
1.9899999999999993e-08,763782341.7179592,-1.426947542337207e+18,463.2026196821833,6.594148361197273e+19
1.9999999999999994e-08,969289083.506289,-1.8127792658164106e+18,466.5078017575507,7.851289832355204e+19
2.0099999999999995e-08,1231230351.8423784,-2.3043274564648532e+18,469.86696801327446,9.353408317064882e+19
2.0199999999999996e-08,1565318495.8473678,-2.9307568761717094e+18,473.2807088094935,1.1148798587970683e+20
