t(s),Adsorbed H on surface 1 (H m-2),solute flux surface 1 (H m-2 s-1),Total T surface 1 (K),0 value at [0] (H m-3)
1e-06,530137555.05743027,-33252744028762.45,300.19310640577635,2030551898584905.5
2.05e-06,1649040950.7758467,-361487995016836.7,300.4967647480693,4049820712505867.5
3.1525e-06,3279270939.7882032,-675801065734834.0,300.8945298510897,5562481707138271.0
4.310125e-06,5466405361.959681,-992800562471100.4,301.3805493365573,7019460843696382.0
5.52563125e-06,8289572202.164293,-1327242384279622.2,301.95285166096545,8504262216055206.0
6.8019128125e-06,11862052142.356565,-1693206918066192.0,302.6113638392579,1.0078978331497862e+16
8.142008453125e-06,16337788825.53778,-2105805361322147.5,303.3570988872316,1.1801406616299272e+16
9.54910887578125e-06,21922188141.97464,-2582691401724010.0,304.1917514548459,1.3732181772341208e+16
1.1026564319570314e-05,28888117810.051895,-3145661532073319.5,305.1174676010664,1.5940416005173096e+16
1.2577892535548829e-05,37598845439.254005,-3822596680001082.5,306.1366989938668,1.8509182644807016e+16
1.4206787162326272e-05,48540657445.3957,-4650011089275202.0,307.25210170742025,2.154170824319126e+16
1.5917126520442588e-05,62369307052.47745,-5676541340321046.0,308.4664599601411,2.516903861287076e+16
1.771298284646472e-05,79976501487.17215,-6967833026574673.0,309.7826242940606,2.956001217515177e+16
1.9598631988787957e-05,102585728540.49373,-8613481865258893.0,311.2034582554195,3.493457761700367e+16
2.1578563588227356e-05,131891408369.44179,-1.0736991513171918e+16,312.731790097923,4.158183715932045e+16
2.3657491767638723e-05,170262517273.4735,-1.351017319134546e+16,314.3703674646418,4.9884713424780584e+16
2.584036635602066e-05,221042840508.53217,-1.7174111870645416e+16,316.121813905313,6.035388473178902e+16
2.8132384673821694e-05,288997028438.95215,-2.2069882273155456e+16,317.9885866904784,7.367469901962371e+16
3.053900390751278e-05,380978051939.2216,-2.8683801881744216e+16,319.9729358111032,9.07722887243656e+16
3.306595410288842e-05,506932840923.396,-3.7714442149101496e+16,322.0768643612496,1.1290224989881507e+17
3.571925180803284e-05,681427319021.3351,-5.017231650827224e+16,324.30209072464874,1.4177727477959659e+17
3.850521439843448e-05,925973122774.8628,-6.752878279940255e+16,326.65001314039273,1.797443952818132e+17
4.143047511835621e-05,1272597220056.6904,-9.193923489618691e+16,329.12167732166125,2.300335010899124e+17
4.4501998874274025e-05,1769345940445.12,-1.265786164986994e+17,331.71774785399884,2.9710622219592806e+17
4.772709881798773e-05,2488809515859.0176,-1.7614692457815094e+17,334.43848411560487,3.871460432344982e+17
5.111345375888712e-05,3541375455402.8594,-2.4763204553101338e+17,337.28372144876363,5.087469057967416e+17
5.4669126446831475e-05,5095899854013.991,-3.514619689752771e+17,340.25285827696763,6.738802418749894e+17
5.8402582769173055e-05,7412029890329.067,-5.032454790292835e+17,343.34484980946553,8.992515965979802e+17
6.232271190763171e-05,10890837319556.377,-7.264004970233738e+17,346.55820890841346,1.208200643780329e+18
6.64388475030133e-05,16154225804451.426,-1.0561176947392529e+18,349.89101461234867,1.6333561729924792e+18
7.076078987816397e-05,24169514596605.4,-1.545325597734252e+18,353.3409287127081,2.220335103962667e+18
7.529882937207217e-05,36444837302640.13,-2.273642486721507e+18,356.9052206643149,3.032877125777796e+18
8.006377084067578e-05,55335033383187.85,-3.360710653628698e+18,360.58080097279384,4.159886815192343e+18
8.506695938270958e-05,84520514492523.84,-4.986199242429491e+18,364.3642630383756,5.72528197306069e+18
9.032030735184505e-05,129753412431468.38,-7.41915503383372e+18,368.25193324489607,7.901173424873715e+18
9.583632271943731e-05,200016685333343.03,-1.1061205584164422e+19,372.23992886450225,1.092580502653318e+19
0.00010162813885540918,309315060706464.9,-1.650923238799675e+19,376.3242231053033,1.5127376743550657e+19
0.00010770954579817965,479422551188484.2,-2.464498752828876e+19,380.5007163662951,2.0955042295396872e+19
0.00011409502308808864,744055640242514.2,-3.676040766947431e+19,384.7653124911447,2.9017827385035645e+19
0.00012079977424249307,1155121333787114.0,-5.472676656245068e+19,389.1139985395217,4.013050283714365e+19
0.00012783976295461773,1791872843789773.0,-8.120974890293135e+19,393.5429263400239,5.536122736591194e+19
0.00013523175110234862,2773889919269763.5,-1.1991400710975255e+20,398.04849386594844,7.606692138201047e+19
0.00014299333865746606,4278547090331814.5,-1.7579875773361825e+20,402.6274243059902,1.0388659827261587e+20
0.00015114300559033938,6562622368962610.0,-2.5513157438971937e+20,407.27684060183003,1.4064159133109807e+20
0.00015970015586985636,9985502424565264.0,-3.6515986074392547e+20,411.994333213174,1.8807974839756017e+20
0.0001686851636633492,1.502835562773863e+16,-5.1317435890989964e+20,416.7780189605924,2.4743800228815097e+20
0.00017811942184651667,2.230199815864093e+16,-7.050022930084785e+20,421.62658899695384,3.1893316385637695e+20
0.00018802539293884252,3.254016595505783e+16,-9.43561110177773e+20,426.5393442715829,4.0148467396187115e+20
0.00019802539293884252,4.591750081763466e+16,-1.2172611608021497e+21,431.32988509872166,4.895073432111438e+20
0.00020802539293884252,6.267800812832702e+16,-1.5178706101068153e+21,435.9638838207396,5.796996837862566e+20
0.00021802539293884252,8.312298248294573e+16,-1.8404970354979336e+21,440.4528975240246,6.704788257712308e+20
0.00022802539293884251,1.0753350339536982e+17,-2.182226484723993e+21,444.8075849210235,7.612106765661182e+20
0.00023802539293884251,1.3618683394299822e+17,-2.541816312403933e+21,449.0377143334152,8.518884115387389e+20
0.0002480253929388425,1.6936536403503914e+17,-2.918976445556551e+21,453.15220573185474,9.427804757400901e+20
0.00025802539293884254,2.0728487135699213e+17,-3.307572889792598e+21,457.1124023005727,1.0327095185842517e+21
0.00026802539293884257,2.5016813021042102e+17,-3.7077707351885574e+21,460.94384151358736,1.1220647459106297e+21
0.0002780253929388426,2.982583266347955e+17,-4.1210714239660023e+21,464.667528682863,1.2114999749037182e+21
0.0002880253929388426,3.518099640326388e+17,-4.548337431483481e+21,468.2950396936991,1.3014287445050199e+21
0.00029802539293884264,4.1108364746386726e+17,-4.990091289511841e+21,471.83490839546886,1.3921167415023748e+21
0.00030802539293884267,4.7634251574743315e+17,-5.446675684318582e+21,475.2939860000383,1.4837392832598557e+21
0.0003180253929388427,5.4784945800875603e+17,-5.918337590808029e+21,478.6780070236569,1.576412680339366e+21
0.0003280253929388427,6.258646556375145e+17,-6.405266805859487e+21,481.99189315123687,1.6702108380757557e+21
0.00033802539293884275,7.10643242196809e+17,-6.907610816397883e+21,485.2399411531617,1.7651747235634526e+21
0.0003480253929388428,8.024330149344174e+17,-7.425478487146221e+21,488.42594981759214,1.8613187623747655e+21
0.0003580253929388428,9.014722055693106e+17,-7.958938942670879e+21,491.5533108563702,1.9586361358476876e+21
0.00036802539293884283,1.0079873564664096e+18,-8.508018858004408e+21,494.6250767298903,2.0571039029298835e+21
0.00037802539293884285,1.1221913674469811e+18,-9.072699843006978e+21,497.64401280775303,2.1566883563134897e+21
0.0003880253929388429,1.244281785361613e+18,-9.652916825819187e+21,500.6126384411369,2.2573507489878822e+21
0.0003980253929388429,1.3744394062140308e+18,-1.0248557890769332e+22,503.5332599320813,2.3590533655669302e+21
0.00040802539293884293,1.5128272497606026e+18,-1.08594657311765e+22,506.40799742850936,2.4617658116531306e+21
0.00041802539293884296,1.6595899506301489e+18,-1.1485440670371812e+22,509.2388071697187,2.5654713348317396e+21
0.000428025392938843,1.8148535897806213e+18,-1.2126245055532836e+22,512.0275001066116,2.670172964283413e+21
0.000438025392938843,1.9787259674707348e+18,-1.2781608728809764e+22,514.7757576519019,2.775899258413645e+21
0.00044802539293884304,2.1512972959023368e+18,-1.3451235219135569e+22,517.4851451250271,2.882709476609757e+21
0.00045802539293884306,2.332641268293668e+18,-1.4134808273903134e+22,520.157123322526,2.990698037816277e+21
0.0004680253929388431,2.5228164431275044e+18,-1.4831998356983827e+22,522.7930585468952,3.099998189033706e+21
0.0004780253929388431,2.7218678690240717e+18,-1.5542468773877593e+22,525.3942313550615,3.210784874743554e+21
0.00048802539293884314,2.9298288679229527e+18,-1.62658811401611e+22,527.9618442339556,3.3232768671998547e+21
0.0004980253929388432,3.146722892234512e+18,-1.7001899978299162e+22,530.49702836903,3.437738281645659e+21
0.0005080253929388432,3.372565375020055e+18,-1.7750196304767242e+22,533.0008496414397,3.5544796556746424e+21
0.0005180253929388432,3.6073655002601257e+18,-1.8510450144317727e+22,535.4743139637575,3.673858814968365e+21
0.0005280253929388432,3.8511278317664927e+18,-1.928235197809363e+22,537.9183720461135,3.796281778214502e+21
0.0005380253929388433,4.1038537529691653e+18,-2.006560318922088e+22,540.3339236682906,3.922203972604647e+21
0.0005480253929388433,4.3655426843667313e+18,-2.0859915613164177e+22,542.7218215219365,4.0521320408815066e+21
0.0005580253929388433,4.63619305964535e+18,-2.1665010326674443e+22,545.0828746762647,4.1866265246991526e+21
0.0005680253929388434,4.915803054363846e+18,-2.248061582139313e+22,547.4178517135505,4.3263057119239555e+21
0.0005780253929388434,5.204371071899617e+18,-2.3306465704387145e+22,549.7274835727187,4.471850941823377e+21
0.0005880253929388434,5.501895999602091e+18,-2.414229605404255e+22,552.012466135068,4.624013677635427e+21
0.0005980253929388434,5.808377253565852e+18,-2.498784253481702e+22,554.2734625807707,4.783624685642512e+21
0.0006080253929388435,6.123814633118952e+18,-2.584283734319458e+22,556.5111055411925,4.951605709812911e+21
0.0006180253929388435,6.448208006175398e+18,-2.670700602086175e+22,558.7259990687992,5.128984107790642e+21
0.0006280253929388435,6.781556844276929e+18,-2.7580064131220293e+22,560.9187204435818,5.316911025548868e+21
0.0006380253929388435,7.123859621738684e+18,-2.846171375278223e+22,563.0898218328034,5.516683844724426e+21
0.0006480253929388436,7.475113087066888e+18,-2.935163969650891e+22,565.239831818472,5.729773852246826e+21
0.0006580253929388436,7.835311406907704e+18,-3.024950530327558e+22,567.3692568054686,5.957860375812817e+21
0.0006680253929388436,8.20444517322529e+18,-3.115494761867266e+22,569.4785823219321,6.202873028296522e+21
0.0006780253929388436,8.582500252971075e+18,-3.2067571669779863e+22,571.568274221769,6.467044248641906e+21
0.0006880253929388437,8.969456445671851e+18,-3.2986943476204774e+22,573.6387797982497,6.752975073791969e+21
0.0006980253929388437,9.365285897156358e+18,-3.3912581304207867e+22,575.6905288171021,7.063718110315407e+21
0.0007080253929388437,9.769951195411137e+18,-3.484394449995716e+22,577.7239344756017,7.402883121252175e+21
0.0007180253929388437,1.0183403044723845e+19,-3.578041899581063e+22,579.7393942947723,7.77477269388881e+21
0.0007280253929388438,1.06055773726248e+19,-3.6721298229321986e+22,581.7372909497434,8.184558396563992e+21
0.0007380253929388438,1.1036391663973792e+19,-3.766575769743396e+22,583.717993044063,8.638512116872494e+21
0.0007480253929388438,1.147574022673236e+19,-3.861282059248851e+22,585.6818558321887,9.144313603531072e+21
0.0007580253929388439,1.1923487955796206e+19,-3.956131079349619e+22,587.6292218945774,9.711464734561357e+21
0.0007680253929388439,1.2379461942127972e+19,-4.0509787679580695e+22,589.5604217690238,1.0351855525436594e+22
0.0007780253929388439,1.2843439915652219e+19,-4.145645441127654e+22,591.4757745417932,1.1080549365380177e+22
0.0007880253929388439,1.331513390177821e+19,-4.239902685065832e+22,593.3755884017141,1.1916890408780101e+22
0.000798025392938844,1.3794166394684041e+19,-4.333454309872797e+22,595.2601611598242,1.2886092800524378e+22
0.000808025392938844,1.4280034340867363e+19,-4.425908196721868e+22,597.1297807375169,1.4021563387183861e+22
0.000818025392938844,1.4772052197442343e+19,-4.516733985235664e+22,598.9847256251222,1.5368358991468792e+22
0.000828025392938844,1.5269256431224637e+19,-4.6051986110244006e+22,600.8252653135123,1.6988416495879027e+22
0.0008380253929388441,1.577023152975291e+19,-4.690267776863749e+22,602.6516607002803,1.89685317806125e+22
0.0008480253929388441,1.6272752585332316e+19,-4.770459826219872e+22,604.4641644725042,2.143232287344533e+22
0.0008580253929388441,1.677291673877215e+19,-4.843662204687332e+22,606.2630214678701,2.4556179659661112e+22
0.0008680253929388441,1.726256867339743e+19,-4.907110506072862e+22,608.048469015236,2.857755815181551e+22
0.0008780253929388442,1.7720728314230333e+19,-4.95885237725395e+22,609.8207372565014,3.3712649809616964e+22
0.0008880253929388442,1.8094658363653431e+19,-5.00534762196797e+22,611.5800494508193,3.967991073914555e+22
0.0008980253929388442,1.832308035743897e+19,-5.068599807127975e+22,613.3266222622555,4.517484927212359e+22
0.0009080253929388442,1.8423959419238152e+19,-5.162075617453067e+22,615.0606660320536,4.920039155069878e+22
0.0009180253929388443,1.845856512839971e+19,-5.278422591510077e+22,616.7823850367442,5.190039266446969e+22
0.0009280253929388443,1.8466410539549274e+19,-5.406444096852391e+22,618.491977732515,5.372570242397677e+22
0.0009380253929388443,1.8464113321671975e+19,-5.538968668409905e+22,620.1896369871887,5.500148716608999e+22
0.0009480253929388443,1.8457753189723628e+19,-5.672332545994916e+22,621.8755503002753,5.592069393203413e+22
0.0009580253929388444,1.8449530775277425e+19,-5.804848606536258e+22,623.549900011983,5.659782906685133e+22
0.0009680253929388444,1.8440301027562744e+19,-5.935833132563907e+22,625.2128635018062,5.710385249527597e+22
0.0009780253929388444,1.8430442018454522e+19,-6.065092348828807e+22,626.8646133773871,5.748472133461089e+22
0.0009880253929388445,1.8420148160537543e+19,-6.19266140279654e+22,628.5053176541036,5.77713379506274e+22
0.0009980253929388445,1.840953338063937e+19,-6.318673145830474e+22,630.1351399260908,5.7985155360974535e+22
0.0010080253929388445,1.8398670924343886e+19,-6.443293058169504e+22,631.7542395290719,5.814149315947144e+22
0.0010180253929388445,1.8387610820364816e+19,-6.566688067911497e+22,633.3627716955011,5.825157302342085e+22
0.0010280253929388446,1.8376388641338614e+19,-6.689012680070462e+22,634.9608877025743,5.832380556973418e+22
0.0010380253929388446,1.8365030412044786e+19,-6.81040381825811e+22,636.5487350132986,5.836462499482198e+22
0.0010480253929388446,1.8353555584702102e+19,-6.930979913946945e+22,638.1264574111636,5.837904355718141e+22
0.0010580253929388446,1.8341978942756698e+19,-7.050841939199435e+22,639.69419512881,5.837102858303564e+22
0.0010680253929388447,1.8330311867379147e+19,-7.170075212509061e+22,641.2520849707737,5.834376459749204e+22
0.0010780253929388447,1.8318563205971968e+19,-7.288751400763507e+22,642.8002604309735,5.829983949077994e+22
0.0010880253929388447,1.8306739883029527e+19,-7.4069304480012995e+22,644.3388518049522,5.82413793682454e+22
0.0010980253929388447,1.8294847339313136e+19,-7.524662318923953e+22,645.8679862972845,5.81701480084861e+22
0.0011080253929388448,1.8282889853749498e+19,-7.641988523245877e+22,647.3877881243033,5.808762142481521e+22
0.0011180253929388448,1.827087078343115e+19,-7.75894342405704e+22,648.8983786126186,5.799504458708048e+22
0.0011280253929388448,1.8258792745278564e+19,-7.875555349166736e+22,650.3998762932492,5.789347514130728e+22
0.0011380253929388448,1.8246657755394462e+19,-7.991847529929935e+22,651.8923969920503,5.778381750662191e+22
0.0011480253929388449,1.8234467337238186e+19,-8.107838892157186e+22,653.3760539162055,5.766684974999306e+22
0.001158025392938845,1.8222222606485187e+19,-8.223544721940423e+22,654.850957737406,5.75432449730061e+22
0.001168025392938845,1.820992433822526e+19,-8.338977226270626e+22,656.3172166713981,5.741358848022785e+22
0.001178025392938845,1.8197573020623581e+19,-8.454146005654629e+22,657.7749365545246,5.727839167265317e+22
0.001188025392938845,1.818516889809558e+19,-8.569058453087592e+22,659.2242209170828,5.713810337423899e+22
0.001198025392938845,1.8172712006279807e+19,-8.683720091505693e+22,660.6651710539064,5.699311912985621e+22
0.001208025392938845,1.8160202200538761e+19,-8.798134859715661e+22,662.0978860920998,5.684378888703204e+22
0.001218025392938845,1.8147639179310672e+19,-8.912305355162987e+22,663.5224630561522,5.669042338092241e+22
0.001228025392938845,1.8135022503333466e+19,-9.026233040460418e+22,664.9389969305554,5.653329947164268e+22
0.0012380253929388451,1.812235161153575e+19,-9.13991841944145e+22,666.3475807201143,5.637266462990213e+22
0.0012480253929388451,1.810962583421878e+19,-9.253361187454227e+22,667.7483055077997,5.620874072570819e+22
0.0012580253929388452,1.8096844404021481e+19,-9.366560359954184e+22,669.1412605105938,5.604172724410757e+22
0.0012680253929388452,1.8084006465060311e+19,-9.479514382659934e+22,670.5265331331996,5.587180402678705e+22
0.0012780253929388452,1.8071111080557283e+19,-9.592221226054733e+22,671.904209019745,5.56991336194951e+22
0.0012880253929388452,1.8058157239207969e+19,-9.704678466567526e+22,673.2743721036135,5.552386329014567e+22
0.0012980253929388453,1.8045143860493033e+19,-9.816883356395837e+22,674.6371046555224,5.534612677048382e+22
0.0013080253929388453,1.8032069799099087e+19,-9.928832883584299e+22,675.9924873298074,5.516604576448352e+22
0.0013180253929388453,1.801893384858377e+19,-1.004052382375923e+23,677.3405992090406,5.498373125919685e+22
0.0013280253929388453,1.8005734744395665e+19,-1.0151952784715167e+23,678.6815178471405,5.47992846676475e+22
0.0013380253929388454,1.7992471166340225e+19,-1.0263116244818648e+23,680.0153193109172,5.461279882815445e+22
0.0013480253929388454,1.7979141740566874e+19,-1.0374010586091336e+23,681.342078220177,5.4424358880622345e+22
0.0013580253929388454,1.796574504113947e+19,-1.0484632122698205e+23,682.6618677864593,5.423404303696923e+22
0.0013680253929388455,1.7952279591241961e+19,-1.059497712544486e+23,683.9747598504135,5.404192326009237e+22
0.0013780253929388455,1.7938743864062173e+19,-1.0705041842833178e+23,685.280824917947,5.384806586366069e+22
0.0013880253929388455,1.7925136283389766e+19,-1.081482251910158e+23,686.5801321950914,5.365253204298821e+22
0.0013980253929388455,1.7911455223958088e+19,-1.0924315409686068e+23,687.8727496218082,5.3455378345995335e+22
0.0014080253929388456,1.789769901155553e+19,-1.1033516794362651e+23,689.1587439044878,5.325665709150425e+22
0.0014180253929388456,1.7883865922926506e+19,-1.114242298847161e+23,690.4381805476025,5.3056416741763735e+22
0.0014280253929388456,1.7869954185480432e+19,-1.1251030352355342e+23,691.7111238840961,5.285470223431366e+22
0.0014380253929388456,1.7855961976822401e+19,-1.1359335299340397e+23,692.9776371049697,5.265155527842287e+22
0.0014480253929388457,1.784188742411812e+19,-1.1467334302381162e+23,694.2377822878282,5.244701461999047e+22
0.0014580253929388457,1.7827728603302939e+19,-1.1575023899547743e+23,695.4916204244813,5.224111627859972e+22
0.0014680253929388457,1.7813483538142833e+19,-1.1682400698527113e+23,696.7392114477267,5.20338937599622e+22
0.0014780253929388457,1.7799150199153916e+19,-1.1789461380247753e+23,697.9806142572804,5.182537824644612e+22
0.0014880253929388458,1.7784726502385768e+19,-1.1896202701718384e+23,699.2158867448148,5.161559876803497e+22
0.0014980253929388458,1.7770210308071928e+19,-1.2002621498241656e+23,700.4450858183615,5.140458235604876e+22
0.0015080253929388458,1.775559941915089e+19,-1.210871468500662e+23,701.6682674258103,5.1192354181211065e+22
0.0015180253929388458,1.7740891579659049e+19,-1.2214479258200452e+23,702.8854865777682,5.097893767793087e+22
0.0015280253929388459,1.772608447299647e+19,-1.2319912295684808e+23,704.0967973697261,5.076435465616931e+22
0.001538025392938846,1.7711175720065862e+19,-1.2425010957282533e+23,705.302253003513,5.054862540213879e+22
0.001548025392938846,1.7696162877283959e+19,-1.2529772484736075e+23,706.5019058080964,5.033176876900459e+22
0.001558025392938846,1.7681043434463773e+19,-1.2634194201412019e+23,707.6958072598524,5.011380225868446e+22
0.001568025392938846,1.7665814812566309e+19,-1.2738273511717698e+23,708.8840080020682,4.9894742095415564e+22
