t(s),Adsorbed H on surface 1 (H m-2),solute flux surface 1 (H m-2 s-1),Total T surface 1 (K),0 value at [0] (H m-3)
1e-10,0.18251410599529036,-1867184269.9604387,300.26236181209674,13071828905051.637
2e-10,0.5492105926538023,-3751294624.504496,300.30256531379393,26211554857500.96
3e-10,1.1013679811670096,-5648346011.858389,300.33486012337994,39406074771760.19
4e-10,1.840130858920089,-7556966616.065875,300.36361610267676,52649575651005.484
5e-10,2.7665810546813594,-9476511695.379515,300.39046013994925,65938961831540.17
6e-10,3.8817706734319453,-11406674088.334072,300.4161996996076,79272490303401.12
7e-10,5.186740971611213,-13347339512.251669,300.4413049949475,92649209237881.64
7.999999999999999e-10,6.68253458899229,-15298518644.057972,300.4660799029638,106068681319330.06
8.999999999999999e-10,8.370204218812232,-17260310694.44156,300.4907360960702,119530830644545.22
9.999999999999999e-10,10.250819194545398,-19232882094.45831,300.5154297830682,133035850890122.73
1.1e-09,12.32547078277651,-21216453253.402615,300.54028174164597,146584146907214.3
1.2e-09,14.595276638466824,-23211289982.16084,300.56538905590605,160176295922721.44
1.3e-09,17.061384703139186,-25217697784.95683,300.5908323927587,173813020914920.34
1.4000000000000001e-09,19.724976727334866,-27236018005.38457,300.6166807228615,187495171907556.97
1.5000000000000002e-09,22.587271539666382,-29266625223.04759,300.6429945010141,201223712618087.38
1.6000000000000003e-09,25.649528148095385,-31309925525.47836,300.6698278777553,214999710848851.78
1.7000000000000003e-09,28.913048735422247,-33366355413.484646,300.69723027965847,228824331572700.72
1.8000000000000004e-09,32.37918159528272,-35436381179.38001,300.7252475655703,242698832010258.2
1.9000000000000005e-09,36.04932404427577,-37520498648.88969,300.75392289043924,256624558215690.66
2.0000000000000005e-09,39.92492533844357,-39619233210.95039,300.78329736284473,270602942831661.16
2.1000000000000006e-09,44.00748961710963,-41733140081.99435,300.8134105540247,284635503770784.3
2.2000000000000007e-09,48.29857889336697,-43862804766.662476,300.8443008980824,298723843647365.2
2.3000000000000007e-09,52.79981610784861,-46008843687.663284,300.87600601117373,312869649829885.06
2.400000000000001e-09,57.51288826050802,-48171904965.226295,300.908562949508,327074695018128.7
2.500000000000001e-09,62.43954963378748,-50352669332.25468,300.94200842054437,341340838273215.0
2.600000000000001e-09,67.58162511961518,-52551851175.50969,300.97637895796737,355670026446856.94
2.700000000000001e-09,72.94101366205163,-54770199696.38573,301.0117110683364,370064295969791.5
2.800000000000001e-09,78.51969182703142,-57008500187.34769,301.0480413553708,384525774969740.25
2.900000000000001e-09,84.31971751046939,-59267575422.10968,301.08540662642343,399056685697375.3
3.0000000000000012e-09,90.34323379598284,-61548287159.26518,301.1238439846553,413659347245174.1
3.1000000000000013e-09,96.5924729736004,-63851537760.45905,301.1633909096496,428336178549210.9
3.2000000000000014e-09,103.06976073106267,-66178271925.367065,301.2040853286162,443089701668160.6
3.3000000000000014e-09,109.77752052965754,-68529478546.79339,301.24596567989204,457922545337320.0
3.4000000000000015e-09,116.71827817696507,-70906192690.14922,301.2890709700997,472837448798462.06
3.5000000000000016e-09,123.89466660940676,-73309497702.46034,301.33344082605976,487837265908957.3
3.6000000000000016e-09,131.3094308980976,-75740527456.8993,301.37911554234415,502924969535928.5
3.7000000000000017e-09,138.96543349218655,-78200468739.66644,301.42613612519347,518103656243323.0
3.800000000000002e-09,146.86565971463975,-80690563786.87662,301.4745443333911,533376551281761.6
3.900000000000002e-09,155.01322352627392,-83212112979.93826,301.52438271658207,548747013892892.56
4.000000000000002e-09,163.41137357478652,-85766477708.7845,301.5756946514413,564218542941792.0
4.100000000000002e-09,172.06349954655843,-88355083413.20393,301.6285243760283,579794782892739.2
4.200000000000002e-09,180.97313884012794,-90979422813.46567,301.6829170226082,595479530145483.2
4.300000000000002e-09,190.14398358145866,-93641059342.42741,301.7389186491772,611276739750927.2
4.400000000000002e-09,199.57988800245295,-96341630792.3745,301.7965762698898,627190532527027.2
4.500000000000002e-09,209.28487620560676,-99082853190.97182,301.8559378845565,643225202597626.4
4.600000000000002e-09,219.2631503392663,-101866524921.9196,301.91705250735475,659385225378966.1
4.700000000000002e-09,229.51909920964496,-104694531107.2238,301.9799701948737,675675266040740.5
4.8000000000000024e-09,240.0573073575981,-107568848269.39255,302.04474207359704,692100188470803.4
4.9000000000000025e-09,250.88256463014577,-110491549293.404,302.11142036691115,708665064775029.1
5.0000000000000026e-09,261.99987627889436,-113464808709.94664,302.1800584217149,725375185346372.1
5.100000000000003e-09,273.4144736198482,-116490908323.22508,302.25071073469485,742236069539898.5
5.200000000000003e-09,285.13182529164055,-119572243208.58801,302.3234329783228,759253476993484.1
5.300000000000003e-09,297.1576491519655,-122711328107.34714,302.39828202662113,776433419637021.1
5.400000000000003e-09,309.49792485497807,-125910804248.48291,302.4753159807388,793782174436359.8
5.500000000000003e-09,322.15890715567076,-129173446629.45316,302.55459419437096,811306296921864.0
5.600000000000003e-09,335.14713999075343,-132502171791.07948,302.63617729905377,829012635555409.9
5.700000000000003e-09,348.46947138938714,-135900046124.4939,302.7201272293582,846908346993920.2
5.800000000000003e-09,362.13306927127815,-139370294751.4313,302.8065072480054,865000912312153.8
5.900000000000003e-09,376.14543819415826,-142916311022.74216,302.8953819709215,883298154252473.1
6.000000000000003e-09,390.5144371175973,-146541666683.96347,302.98681739224656,901808255574750.8
6.100000000000003e-09,405.2482982554505,-150250122761.10104,303.080880909311,920539778585468.0
6.200000000000003e-09,420.3556470950791,-154045641224.52377,303.177641347589,939501685931471.9
6.3000000000000035e-09,435.84552366784914,-157932397494.08804,303.27716898563733,958703362750820.0
6.4000000000000035e-09,451.72740516235416,-161914793854.32135,303.37953558002624,978154640280721.8
6.500000000000004e-09,468.0112299793915,-165997473854.79544,303.4848143902659,997865821030841.6
6.600000000000004e-09,484.7074233360024,-170185337777.74884,303.5930802037333,1017847705639214.6
6.700000000000004e-09,501.8269245349423,-174483559262.61768,303.704409360599,1038111621537827.5
6.800000000000004e-09,519.3812160258549,-178897603185.5692,303.8188797787569,1058669453565613.5
6.900000000000004e-09,537.3823543952712,-183433244901.36972,303.936570978754,1079533676678275.4
7.000000000000004e-09,555.8430034344393,-188096590965.15955,304.0575641087201,1100717390917099.0
7.100000000000004e-09,574.7764694470206,-192894101462.9962,304.18194196929426,1122234358812855.6
7.200000000000004e-09,594.1967389729932,-197832614092.5122,304.3097890385443,1144099045416118.8
7.300000000000004e-09,614.118519120798,-202919370148.85806,304.4411914968757,1166326661162003.0
7.400000000000004e-09,634.55728071703,-208162042586.3746,304.576237251924,1188933207795580.2
7.500000000000004e-09,655.529304501951,-213568766343.40598,304.71501596342557,1211935527604236.5
7.600000000000004e-09,677.0517306199979,-219148171136.45242,304.85761906806016,1235351356225156.0
7.700000000000003e-09,699.1426116774758,-224909416950.71375,305.00413980425765,1259199379320183.5
7.800000000000002e-09,721.8209696649982,-230862232477.26743,305.154673236962,1283499293436716.5
7.900000000000001e-09,745.1068570702444,-237016956772.87317,305.30931628234396,1308271871402293.2
8e-09,769.0214225375178,-243384584447.07413,305.4681677324529,1333539032632423.2
8.1e-09,793.5869814647726,-249976814713.1947,305.6313282798002,1359323918766273.5
8.199999999999999e-09,818.8270919665833,-256806104675.421,305.798900541862,1385650975083418.2
8.299999999999998e-09,844.7666366733896,-263885727263.8746,305.97098908549384,1412546038197363.2
8.399999999999997e-09,871.43191088374,-271229834273.90167,306.14770045124345,1440036430568389.2
8.499999999999997e-09,898.8507176377047,-278853525015.39685,306.32914317755296,1468151062429912.2
8.599999999999996e-09,927.0524703367445,-286772921133.3818,306.5154278248377,1496920541779548.8
8.699999999999995e-09,956.0683035987809,-295005248223.1529,306.7066669994291,1526377293149003.8
8.799999999999994e-09,985.9311931077959,-303568924932.8836,306.9029753773712,1556555685936437.8
8.899999999999994e-09,1016.6760852958465,-312483660324.5818,307.10446972805534,1587492173161853.8
8.999999999999993e-09,1048.3400377829191,-321770560351.9481,307.3112689376819,1619225441591113.2
9.099999999999992e-09,1080.9623715976725,-331452244412.1432,307.52349403253464,1651796574268381.0
9.199999999999991e-09,1114.584836311092,-341552973039.2541,307.7412682020537,1685249226601161.2
9.29999999999999e-09,1149.251789336854,-352098787931.9925,307.96471682169295,1719629817257796.2
9.39999999999999e-09,1185.0103907883881,-363117665648.7641,308.19396747554777,1754987735265680.2
9.499999999999989e-09,1221.910815435111,-374639686461.8689,308.42914997873714,1791375564840993.0
9.599999999999988e-09,1260.0064834711834,-386697220041.7536,308.67039639952594,1828849329639134.5
9.699999999999988e-09,1299.3543120018317,-399325129844.75055,308.91784108117076,1867468758291149.0
9.799999999999987e-09,1340.0149893675402,-412560998306.94775,309.1716206634745,1907297573287375.0
9.899999999999986e-09,1382.053274668378,-426445375206.39557,309.4318741040325,1948403805487753.8
9.999999999999985e-09,1425.5383251229946,-441022051850.30707,309.6987426991543,1990860136781348.5
1.0099999999999985e-08,1470.5440542035017,-456338364077.9845,309.9723701044446,2034744273688760.5
1.0199999999999984e-08,1517.149523833259,-472445527449.9399,310.2529023550252,2080139355003665.5
1.0299999999999983e-08,1565.4393743249293,-489399008425.55426,310.5404878853818,2127134396907595.2
1.0399999999999982e-08,1615.504296177231,-507258935823.35547,310.8352775488179,2175824779369683.2
1.0499999999999982e-08,1667.4415483477633,-526090557418.6038,311.1374246364971,2226312778065455.2
1.059999999999998e-08,1721.3555281842778,-545964747172.4726,311.44708489605716,2278708146521434.5
1.069999999999998e-08,1777.3583988373005,-566958569317.8402,311.7644165497762,2333128753721837.0
1.079999999999998e-08,1835.5707807039428,-589155906362.3009,312.08958031227326,2389701283007164.0
1.0899999999999978e-08,1896.122514278662,-612648159025.6118,312.42273940772486,2448561998760352.5
1.0999999999999978e-08,1959.153502726174,-637535027225.1477,312.7640595865772,2509857588123662.0
1.1099999999999977e-08,2024.814643561486,-663925382480.8739,313.1137091417368,2573746085829369.5
1.1199999999999976e-08,2093.2688600415695,-691938243556.1843,313.47185892421845,2640397891171691.5
1.1299999999999975e-08,2164.692244265112,-721703868812.5121,313.83868235823235,2709996887210035.0
1.1399999999999975e-08,2239.2753255672405,-753364980668.3135,314.21435545568966,2782741673490390.0
1.1499999999999974e-08,2317.2244796155537,-787078139757.6106,314.5990568301079,2858846924920438.5
1.1599999999999973e-08,2398.7634956976235,-823015288926.8695,314.9929677098947,2938544890955186.5
1.1699999999999972e-08,2484.13532207956,-861365490147.414,315.39627195099115,3022087050967131.0
1.1799999999999972e-08,2573.6040120583366,-902336880818.8108,315.8091560488537,3109745943614836.5
1.1899999999999971e-08,2667.456896483466,-946158879873.273,316.2318091497543,3201817190216960.5
1.199999999999997e-08,2766.007012151828,-993084678652.2289,316.66442306137884,3298621734620249.0
1.209999999999997e-08,2869.5958196597235,-1043394056819.4594,317.10719226270226,3400508324859974.0
1.2199999999999969e-08,2978.5962491183554,-1097396569725.7719,317.5603139131213,3507856265095657.5
1.2299999999999968e-08,3093.416117708268,-1155435160794.8203,318.02398786082205,3621078469916530.5
1.2399999999999967e-08,3214.501969488516,-1217890260832.9011,318.4984166503634,3740624857210567.5
1.2499999999999966e-08,3342.3433953327603,-1285184445882.1968,318.9838055294545,3866986120447694.0
1.2599999999999966e-08,3477.4778995081965,-1357787736581.1216,319.4803624549052,4000697926521879.0
1.2699999999999965e-08,3620.496389445698,-1436223635254.869,319.98829809772946,4142345591320354.0
1.2799999999999964e-08,3772.049376908411,-1521076012476.5554,320.5078258473797,4292569292047110.0
1.2899999999999963e-08,3932.853992331997,-1612996973020.4773,321.03916181509203,4452069883144060.5
1.2999999999999963e-08,4103.701929914464,-1712715852457.2922,321.5825248363208,4621615391567825.0
1.3099999999999962e-08,4285.468459469903,-1821049520691.4067,322.13813647224146,4802048277355027.0
1.3199999999999961e-08,4479.122662593707,-1938914198198.9167,322.7062210103022,4994293557032074.0
1.329999999999996e-08,4685.739075869273,-2067339025407.4272,323.287005463801,5199367900713035.0
1.339999999999996e-08,4906.510953333568,-2207481666544.5166,323.88071957046986,5418389828931907.0
1.3499999999999959e-08,5142.765394991315,-2360646277535.804,324.48759579004434,5652591152663083.0
1.3599999999999958e-08,5395.980628753599,-2528304224556.1855,325.10786930079706,5903329819931456.0
1.3699999999999957e-08,5667.805780883558,-2712118007303.0493,325.74177799501655,6172104355290257.0
1.3799999999999956e-08,5960.083526180585,-2913968920978.4517,326.38956247340917,6460570104700613.0
1.3899999999999956e-08,6274.876075304079,-3135989085753.449,327.0514660384049,6770557528504939.0
1.3999999999999955e-08,6614.495034716592,-3380598585044.282,327.7277346863466,7104092819853213.0
1.4099999999999954e-08,6981.535766976286,-3650548587752.57,328.4186170985429,7463421165821932.0
1.4199999999999953e-08,7378.916988242031,-3948971488921.3857,329.1243646311642,7851033014379250.0
1.4299999999999953e-08,7809.926469127325,-4279439293118.022,329.8452313039638,8269693763249694.0
1.4399999999999952e-08,8278.27385836449,-4646031691408.541,330.5814737878027,8722477347726745.0
1.4499999999999951e-08,8788.151830827257,-5053415553460.587,331.3333513909602,9212804274863514.0
1.459999999999995e-08,9344.306977979944,-5506937880079.393,332.1011260442117,9744484732745594.0
1.469999999999995e-08,9952.122116616163,-6012734649231.74,332.88506228465343,1.0321767497471296e+16
1.4799999999999949e-08,10617.71199907933,-6577858453543.539,333.68542723825703,1.0949395469080344e+16
1.4899999999999948e-08,11348.034775005792,-7210428385399.017,334.5024906011354,1.163266879337323e+16
1.499999999999995e-08,12151.021993082026,-7919806296607.009,335.33652461950146,1.2377516672141844e+16
1.509999999999995e-08,13035.730455998897,-8716804366841.928,336.1878040683035,1.3190579133050768e+16
1.519999999999995e-08,14012.519870472765,-9613929887592.504,337.05660622851786,1.4079300226083584e+16
1.5299999999999952e-08,15093.260988443342,-10625674341372.607,337.9432108630844,1.5052034340563942e+16
1.5399999999999953e-08,16291.579841555482,-11768855272443.395,338.84790019146607,1.6118167600502516e+16
1.5499999999999954e-08,17623.144760673207,-13063021157772.133,339.77095886281774,1.7288256602529058e+16
1.5599999999999954e-08,19106.00418430212,-14530931559626.174,340.7126739277478,1.8574187117114904e+16
1.5699999999999955e-08,20760.98484177806,-16199127352676.568,341.67333480865756,1.9989355788582744e+16
1.5799999999999956e-08,22612.16180673839,-18098608865083.145,342.65323326864257,2.1548878352398532e+16
1.5899999999999957e-08,24687.41422438787,-20265643472882.36,343.65266337894263,2.3269828451015256e+16
1.5999999999999958e-08,27019.083308839075,-22742728685112.477,344.67192148492467,2.517151178567346e+16
1.609999999999996e-08,29644.752590188702,-25579742231670.855,345.71130617058657,2.727578110701054e+16
1.619999999999996e-08,32608.174494716433,-28835317336027.97,346.77111822156667,2.9607398440831628e+16
1.629999999999996e-08,35960.37232483309,-32578489490342.625,347.851660586648,3.219445198897756e+16
1.639999999999996e-08,39760.95276363829,-36890670983498.945,348.9532383377441,3.5068836364788324e+16
1.6499999999999962e-08,44079.67140247335,-41868021572794.05,350.0761586283544,3.826680624866684e+16
1.6599999999999963e-08,48998.302774342155,-47624298542975.65,351.22073065047834,4.182961521753688e+16
1.6699999999999964e-08,54612.87733565321,-54294287586343.43,352.3872655899777,4.5804253454744184e+16
1.6799999999999965e-08,61036.36122226052,-62037938236259.34,353.576076580376,5.024430033382729e+16
1.6899999999999966e-08,68401.87096701114,-71045354947938.84,354.78747865508694,5.521091054906532e+16
1.6999999999999967e-08,76866.5353887271,-81542828525968.81,356.0217886980607,6.077395560666946e+16
1.7099999999999968e-08,86616.1413917953,-93800133910574.75,357.2793253928415,6.701334617407639e+16
1.719999999999997e-08,97870.73049648172,-108139371167487.69,358.56040917002804,7.40205651066476e+16
1.729999999999997e-08,110891.34984644945,-124945689128191.16,359.8653621531284,8.190044604388224e+16
1.739999999999997e-08,125988.20681436874,-144680308289269.2,361.19450810280455,9.077323842386862e+16
1.749999999999997e-08,143530.5321357106,-167896354767097.03,362.54817235949884,1.0077700676175178e+17
1.7599999999999972e-08,163958.5252095522,-195258134623171.28,363.9266817844385,1.1207042026015595e+17
1.7699999999999973e-08,187797.83987332362,-227564623078774.0,365.3303646990116,1.2483599848453269e+17
1.7799999999999974e-08,215677.17338706844,-265778122683155.34,366.75955082251306,1.392838902010985e+17
1.7899999999999975e-08,248349.65027713074,-311059266671658.9,368.21457120825374,1.5565627584220262e+17
1.7999999999999976e-08,286718.8519665927,-364809818863011.1,369.6957581780332,1.742324997907612e+17
1.8099999999999977e-08,331870.5400751223,-428725062343552.2,371.2034452549726,1.9533505718293606e+17
1.8199999999999978e-08,385111.36501315306,-504857991874473.0,372.7379670947056,2.193365817131415e+17
1.829999999999998e-08,448016.1533737745,-595698049382782.2,374.2996594149283,2.4666800657330192e+17
1.839999999999998e-08,522485.7417879015,-704267792925431.5,375.88885892330734,2.778281008594252e+17
1.849999999999998e-08,610817.7889983169,-834241698160968.1,377.5059032437467,3.133946193468493e+17
1.859999999999998e-08,715793.5739405209,-990092296307245.0,379.15113084101523,3.540373454301986e+17
1.8699999999999982e-08,840784.5030715613,-1177270102068650.0,380.82488094373775,4.005333563755291e+17
1.8799999999999983e-08,989882.9393739256,-1402425339302593.0,382.5274934657504,4.5378489817209696e+17
1.8899999999999984e-08,1168063.071239021,-1673681406415254.5,384.2593089258271,5.1484032576828864e+17
1.8999999999999985e-08,1381378.915355247,-2000972431423892.0,386.02066836577916,5.849186451775589e+17
1.9099999999999986e-08,1637208.260719355,-2396460265359624.0,387.81191326693437,6.654382890199965e+17
1.9199999999999987e-08,1944553.4946279125,-2875049998311428.0,389.63338546500154,7.580508690818862e+17
1.9299999999999988e-08,2314412.9106091536,-3455027737264119.0,391.4854270633271,8.646807814388572e+17
1.939999999999999e-08,2760239.413562309,-4158850186490312.0,393.36838034455053,9.875716951363657e+17
1.949999999999999e-08,3298507.6725280974,-5014122803506928.0,395.28258768066934,1.1293411385130153e+18
1.959999999999999e-08,3949415.9312211075,-6054812320634899.0,397.22839144151936,1.2930446128724055e+18
1.969999999999999e-08,4737755.1267817635,-7322750665664696.0,399.206133901683,1.4822509170931236e+18
1.9799999999999992e-08,5693986.008486563,-8869501335678086.0,401.21615714583425,1.7011306656436068e+18
1.9899999999999993e-08,6855574.991110124,-1.0758676762012036e+16,403.25880297253394,1.9545603342306895e+18
1.9999999999999994e-08,8268652.023508583,-1.3068817006709386e+16,405.33441279648446,2.2482445812060086e+18
2.0099999999999995e-08,9990069.428724345,-1.5896967316367416e+16,407.44332754926006,2.588860079714552e+18
2.0199999999999996e-08,12089960.261521434,-1.936312595337914e+16,409.58588757852493,2.9842246680700196e+18
2.0299999999999996e-08,14654919.213052832,-2.361577597584682e+16,411.7624325457529,3.443496298805469e+18
