t(s),Adsorbed H on surface 1 (H m-2),solute flux surface 1 (H m-2 s-1),Total T surface 1 (K),0 value at [0] (H m-3)
1e-10,211.61662925257184,-71254395567.50986,300.02127815668524,8141385768390.706
2e-10,628.1265382963063,-153091277114.44836,300.0326682021735,16019403450174.105
3e-10,1242.8582861104833,-244918397728.52383,300.04180965058816,23637649561063.83
4e-10,2049.3901362215156,-346277876641.4245,300.0499487433581,31006235649122.984
5e-10,3041.5573012659383,-456735620395.3818,300.05754649558656,38135312592483.625
6e-10,4213.449301392568,-575878351762.8644,300.0648315334348,45034826536828.87
7e-10,5559.4037545258925,-703312083982.7001,300.07193696623364,51714428222163.97
7.999999999999999e-10,7073.998678105733,-838661045310.511,300.0789488108462,58183436800998.24
8.999999999999999e-10,8752.044171328942,-981566792834.8463,300.08592698269706,64450827155886.05
9.999999999999999e-10,10588.57389496867,-1131687425703.8665,300.09291569700997,70525228639200.5
1.1e-09,12578.836567283512,-1288696861129.9456,300.0999491394482,76414929797040.39
1.2e-09,14718.287596938853,-1452284156235.1226,300.10705478857477,82127886362827.31
1.3e-09,17002.58092179344,-1622152867022.6187,300.1142554755136,87671731057869.69
1.4000000000000001e-09,19427.56109283915,-1798020439514.7961,300.1215707202628,93053784363533.39
1.5000000000000002e-09,21989.255624972517,-1979617629939.625,300.1290176319445,98281065766376.47
1.6000000000000003e-09,24683.867625396168,-2166687951806.516,300.13661153482576,103360305168607.12
1.7000000000000003e-09,27507.7687035387,-2358987148239.38,300.14436641564185,108297954269608.05
1.8000000000000004e-09,30457.49216190885,-2556282688240.2407,300.15229525088415,113100197794167.72
1.9000000000000005e-09,33529.72646437296,-2758353285743.74,300.1604102513148,117772964487525.9
2.0000000000000005e-09,36721.308976425425,-2964988440444.8936,300.1687230480835,122321937826381.3
2.1000000000000006e-09,40029.21997077561,-3175987999467.016,300.1772448368075,126752566414395.45
2.2000000000000007e-09,43450.57689078559,-3391161738999.807,300.185986490845,131070074043893.86
2.3000000000000007e-09,46982.62886382071,-3610328965087.695,300.1949586516336,135279469414535.5
2.400000000000001e-09,50622.75145632376,-3833318132790.3843,300.2041718017069,139385555506032.89
2.500000000000001e-09,54368.441662328805,-4059966482974.5205,300.2136363244598,143392938606419.66
2.600000000000001e-09,58217.313117147205,-4290119696028.7725,300.2233625536602,147306037000461.06
2.700000000000001e-09,62167.091528053534,-4523631561825.655,300.23336081493954,151129089324962.25
2.800000000000001e-09,66215.61031395105,-4760363665282.8,300.24364146095155,154866162599224.4
2.900000000000001e-09,70360.80644618733,-5000185086904.22,300.25421490148716,158521159939908.78
3.0000000000000012e-09,74600.71648290941,-5242972117708.921,300.2650916295401,162097827970223.53
3.1000000000000013e-09,78933.47278958472,-5488607987979.965,300.2762822440982,165599763933749.4
3.2000000000000014e-09,83357.29993856311,-5736982609291.975,300.28779747026886,169030422523424.25
3.3000000000000014e-09,87870.51128081114,-5987992329299.185,300.2996481772227,172393122436274.9
3.4000000000000015e-09,92471.5056832087,-6241539698789.278,300.3118453943394,175691052664444.34
3.5000000000000016e-09,97158.76442505761,-6497533250530.772,300.32440032586663,178927278532947.53
3.6000000000000016e-09,101930.8482477099,-6755887289463.618,300.3373243643432,182104747494419.28
3.7000000000000017e-09,106786.39455147805,-7016521693803.516,300.35062910299064,185226294690902.97
3.800000000000002e-09,111724.11473424066,-7279361726651.15,300.36432634724144,188294648292492.16
3.900000000000002e-09,116742.79166640209,-7544337857716.84,300.37842812554123,191312434622374.44
4.000000000000002e-09,121841.27729710545,-7811385594790.797,300.3929466995403,194282183077557.38
4.100000000000002e-09,127018.49038683236,-8080445324607.089,300.4078945737689,197206330854276.53
4.200000000000002e-09,132273.41436175103,-8351462162767.767,300.423284504876,200087227486803.2
4.300000000000002e-09,137605.0952853968,-8624385812410.79,300.4391295104987,202927139208090.3
4.400000000000002e-09,143012.63994348465,-8899170431322.258,300.45544287781775,205728253140415.2
4.500000000000002e-09,148495.21403786345,-9175774507209.723,300.47223817184727,208492681323903.3
4.600000000000002e-09,154052.04048582498,-9454160740869.393,300.4895292434984,211222464590553.28
4.700000000000002e-09,159682.39782117915,-9734295936995.223,300.5073302374513,213919576291119.06
4.8000000000000024e-09,165385.6186936989,-10016150902393.18,300.52565559986505,216585925881957.22
4.9000000000000025e-09,171161.08846372494,-10299700351378.047,300.5445200859491,219223362378701.44
5.0000000000000026e-09,177008.2438889024,-10584922818144.92,300.5639387674188,221833677683393.75
5.100000000000003e-09,182926.5719001976,-10871800575921.11,300.58392703985203,224418609791477.44
5.200000000000003e-09,188915.60846451574,-11160319562717.734,300.60450062996364,226979845884841.7
5.300000000000003e-09,194974.9375314072,-11450469313513.676,300.6256756028095,229519025316902.88
5.400000000000003e-09,201104.190061514,-11742242898717.506,300.6474683689331,232037742495513.4
5.500000000000003e-09,207303.0431345672,-12035636868765.834,300.66989569146307,234537549669302.75
5.600000000000003e-09,213571.2191349022,-12330651204728.992,300.69297469317036,237019959622880.8
5.700000000000003e-09,219908.48501261155,-12627289274807.66,300.7167228634925,239486448286168.5
5.800000000000003e-09,226314.65161860478,-12925557796616.014,300.7411580655301,241938457262964.25
5.900000000000003e-09,232789.57311199192,-13225466805159.205,300.76629854302064,244377396283710.3
6.000000000000003e-09,239333.14643835186,-13527029626425.184,300.79216292729404,246804645587284.9
6.100000000000003e-09,245945.31087759027,-13830262856522.842,300.8187702442129,249221558236521.8
6.200000000000003e-09,252626.04766023209,-14135186346310.275,300.84613992110013,251629462372039.75
6.3000000000000035e-09,259375.3796511341,-14441823191469.34,300.8742917936564,254029663408857.62
6.4000000000000035e-09,266193.37109974126,-14750199727994.096,300.903246112868,256423446180172.94
6.500000000000004e-09,273080.12745614885,-15060345533073.838,300.9330235519071,258812077032591.44
6.600000000000004e-09,280035.79525237024,-15372293431362.441,300.963645213025,261196805877016.9
6.700000000000004e-09,287060.5620483472,-15686079506639.254,300.99513263443725,263578868199339.4
6.800000000000004e-09,294154.6564423784,-16001743118878.467,301.0275077972023,265959487034999.53
6.900000000000004e-09,301318.3481457805,-16319326926757.352,301.0607931320919,268339874911454.1
7.000000000000004e-09,308551.94812173484,-16638876915646.242,301.09501152645294,270721235762527.28
7.100000000000004e-09,315855.80878841627,-16960442431136.887,301.1301863310598,273104766818597.7
7.200000000000004e-09,323230.3242866421,-17284076218179.438,301.1663413669552,275491660476549.28
7.300000000000004e-09,330675.9308124252,-17609834465912.33,301.203500932279,277883106153400.78
7.400000000000004e-09,338193.10701496474,-17937776858283.727,301.24168980908195,280280292127523.4
7.500000000000004e-09,345782.3744607579,-18267966630579.16,301.28093327012385,282684407371366.2
7.600000000000004e-09,353444.2981646728,-18600470631983.92,301.321257085652,285096643379621.1
7.700000000000003e-09,361179.4871889819,-18935359394326.977,301.3626875301594,287518195996791.6
7.800000000000002e-09,368988.59531151864,-19272707207168.45,301.40525138911886,289950267248163.2
7.900000000000001e-09,376872.3217642914,-19612592199411.617,301.4489759656909,292394067178226.8
8e-09,384831.4120440629,-19955096427637.484,301.493889087402,294850815700664.44
8.1e-09,392866.6587965859,-20300305971381.258,301.54001911279056,297321744464081.3
8.199999999999999e-09,400978.9027763752,-20648311035588.01,301.5873949380169,299808098737753.2
8.299999999999998e-09,409169.0338840927,-20999206060508.85,301.6360460034348,302311139321756.56
8.399999999999997e-09,417437.99228382914,-21353089839318.754,301.686002300119,304832144485960.3
8.499999999999997e-09,425786.7696027795,-21710065643763.68,301.73729437634825,307372411942484.7
8.599999999999996e-09,434216.4102160355,-22070241358167.266,301.78995334403623,309933260856373.4
8.699999999999995e-09,442728.01261945587,-22433729622156.176,301.8440108851098,312516033899381.25
8.799999999999994e-09,451322.73089382163,-22800647982490.043,301.8994992578285,315122099351952.8
8.899999999999994e-09,460001.7762637474,-23171119054412.105,301.95645130304143,317752853258657.06
8.999999999999993e-09,468766.41875509475,-23545270692969.297,302.01490045037804,320409721642552.0
9.099999999999992e-09,477617.9889549245,-23923236174783.29,302.07488072436723,323094162784179.8
9.199999999999991e-09,486557.8798783343,-24305154390791.008,302.136426750481,325807669571142.44
9.29999999999999e-09,495587.5489468522,-24691170050510.84,302.1995737610978,328551771924476.1
9.39999999999999e-09,504708.5200834041,-25081433898432.445,302.26435760138025,331328039308336.44
9.499999999999989e-09,513922.3859292372,-25476102943171.53,302.33081473506394,334138083329823.3
9.599999999999988e-09,523230.81018857326,-25875340700077.504,302.3989822501498,336983560436118.06
9.699999999999988e-09,532635.530107177,-26279317448032.816,302.46889786449725,339866174716475.9
9.799999999999987e-09,542138.3590914666,-26688210501235.97,302.5405999313121,342787680817019.56
9.899999999999986e-09,551741.1894752609,-27102204496816.8,302.6141274445231,345749886976710.0
9.999999999999985e-09,561445.9954417575,-27521491699196.684,302.6895200440433,348754658193339.4
1.0099999999999985e-08,571254.83610887,-27946272322169.035,302.7668180209095,351803919528892.9
1.0199999999999984e-08,581169.8587866195,-28376754869749.63,302.8460623222945,354899659564167.6
1.0299999999999983e-08,591193.3024158832,-28813156496920.645,302.92729455638704,358043934013123.25
1.0399999999999982e-08,601327.5011984541,-29255703391474.184,303.0105569971329,361238869508062.2
1.0499999999999982e-08,611574.888429058,-29704631178251.105,303.0958925888316,364486667567419.4
1.059999999999998e-08,621938.0005407189,-30160185347163.344,303.1833449505834,367789608758665.4
1.069999999999998e-08,632419.4813756587,-30622621706491.992,303.2729583805791,371150057069611.44
1.079999999999998e-08,643022.0866947724,-31092206863062.51,303.36477786022834,374570464502247.4
1.0899999999999978e-08,653748.6889396327,-31569218731018.188,303.45884905811886,378053375904151.7
1.0999999999999978e-08,664602.2822619611,-32053947071039.63,303.55521833380135,381601434053486.75
1.1099999999999977e-08,675585.9878365536,-32546694061997.418,303.6539327413929,385217385014644.9
1.1199999999999976e-08,686703.0594747848,-33047774907174.28,303.75504003299346,388904083782738.5
1.1299999999999975e-08,697956.8895570267,-33557518477353.73,303.858588661908,392664500236346.75
1.1399999999999975e-08,709351.0153036268,-34076267993247.496,303.9646277856688,396501725419238.25
1.1499999999999974e-08,720889.1254054973,-34604381749921.734,304.0732072688507,400418978173202.0
1.1599999999999973e-08,732575.0670368802,-35142233886087.176,304.18437768567264,404419612145633.56
1.1699999999999972e-08,744412.853274482,-35690215201337.96,304.2981903223794,408507123197161.75
1.1799999999999972e-08,756406.6709489296,-36248734024665.695,304.4146971793967,412685157236361.6
1.1899999999999971e-08,768560.8889563887,-36818217137831.61,304.533950973252,416957518510496.06
1.199999999999997e-08,780880.0670602277,-37399110757464.54,304.656005138256,421328178383276.6
1.209999999999997e-08,793368.9652148129,-37991881580055.016,304.7809138279361,425801284632838.0
1.2199999999999969e-08,806032.5534458925,-38597017894349.0,304.9087319162167,430381171305497.4
1.2299999999999968e-08,818876.0223245986,-39215030766003.76,305.0395149983377,435072369163437.44
1.2399999999999967e-08,831904.7940748619,-39846455299760.56,305.17331939150625,439879616767217.1
1.2499999999999966e-08,845124.5343570345,-40491851984813.086,305.3102021352732,444807872236999.5
1.2599999999999966e-08,858541.1647737526,-41151808129513.586,305.45022099162816,449862325739612.0
1.2699999999999965e-08,872160.8761475775,-41826939392062.22,305.59343444480606,455048412752033.7
1.2799999999999964e-08,885990.1426237444,-42517891414373.625,305.7399017007984,460371828155663.1
1.2899999999999963e-08,900035.7366554573,-43225341566910.0,305.8896826865615,465838541219784.25
1.2999999999999963e-08,914304.7449336166,-43950000812923.71,306.0428380489162,471454811537036.06
1.3099999999999962e-08,928804.5853276898,-44692615701259.375,306.19942915313067,477227205978439.4
1.3199999999999961e-08,943543.0249096617,-45453970497641.07,306.3595180811801,483162616740665.9
1.329999999999996e-08,958528.1991386758,-46234889465215.586,306.52316762967666,489268280563787.0
1.339999999999996e-08,973768.6322901322,-47036239306044.53,306.6904413074618,495551799203749.4
1.3499999999999959e-08,989273.2592196928,-47858931776248.23,306.86140333285533,502021161250325.4
1.3599999999999958e-08,1005051.4485599047,-48703926488605.82,307.0361186305534,508684765388332.0
1.3699999999999957e-08,1021113.0274550439,-49572233917622.516,307.21465282816916,515551445207537.94
1.3799999999999956e-08,1037468.3079483599,-50464918623395.22,307.3970722524093,522630495674941.5
1.3899999999999956e-08,1054128.1151452367,-51383102712051.86,307.5834439248796,529931701392063.2
1.3999999999999955e-08,1071103.8172859394,-52327969552125.31,307.7738355575129,537465366769605.5
1.4099999999999954e-08,1088407.3578726754,-53300767767954.87,307.96831554761326,545242348262365.94
1.4199999999999953e-08,1106051.290007744,-54302815533114.67,308.1669529725093,553274088818716.75
1.4299999999999953e-08,1124048.8131126733,-55335505188954.375,308.36981758381063,561572654711364.7
1.4399999999999952e-08,1142413.8122125582,-56400308215630.625,308.57697980126096,570150774929565.9
1.4499999999999951e-08,1161160.8999854184,-57498780585524.45,308.78851070618134,579021883327591.2
1.459999999999995e-08,1180305.4617934353,-58632568531709.12,309.0044820344981,588200163740116.4
1.469999999999995e-08,1199863.7039315247,-59803414767170.984,309.2249661693484,597700598292468.1
1.4799999999999949e-08,1219852.7053490134,-61013165193836.3,309.4500361332584,607539019152413.8
1.4899999999999948e-08,1240290.4731223949,-62263776144138.32,309.6797655798873,617732163990576.9
1.499999999999995e-08,1261196.0019814014,-63557322201913.805,309.91422878533245,628297735438746.8
1.509999999999995e-08,1282589.338217187,-64896004653890.75,310.1535006389889,639254464859480.2
1.519999999999995e-08,1304491.6483304596,-66282160627952.18,310.39765663395866,650622180766667.5
1.5299999999999952e-08,1326925.292809207,-67718272979796.53,310.64677285700446,662421882265330.0
1.5399999999999953e-08,1349913.9054605009,-69206980995610.695,310.9009259780415,674675817910059.1
1.5499999999999954e-08,1373482.4787590331,-70751091984992.69,311.16019323916385,687407570415439.8
1.5599999999999954e-08,1397657.4557168924,-72353593845675.69,311.4246524431993,700642147688767.6
1.5699999999999955e-08,1422466.8288249888,-74017668689686.77,311.6943819417889,714406080695675.1
1.5799999999999956e-08,1447940.24666691,-75746707629514.7,311.9694606229854,728727528713220.5
1.5899999999999957e-08,1474109.1288612832,-77544326832752.69,312.2499678983678,743636392572925.0
1.5999999999999958e-08,1501006.7900494607,-79414384964628.22,312.53598368966584,759164436548536.5
1.609999999999996e-08,1528668.573712079,-81361002149964.2,312.8275884148927,775345419600365.6
1.619999999999996e-08,1557131.9966714145,-83388580599548.78,313.1248629739799,792215236750340.2
1.629999999999996e-08,1586436.905217147,-85501827060797.61,313.42788873391186,809812071429959.5
1.639999999999996e-08,1616625.6438819384,-87705777269117.72,313.73674751335744,828176559717639.1
1.6499999999999962e-08,1647743.23799097,-90005822594729.03,314.0515215667931,847351967463131.2
1.6599999999999963e-08,1679837.5912172308,-92407739100073.0,314.3722935681169,867384381385447.2
1.6699999999999964e-08,1712959.699492961,-94917719245572.44,314.6991465937495,888322915327716.4
1.6799999999999965e-08,1747163.8827583955,-97542406506665.33,315.0321641052197,910219932958508.5
1.6899999999999966e-08,1782508.0361731397,-100288933193023.2,315.37142993123246,933131288325172.0
1.6999999999999967e-08,1819053.9025745932,-103164961791998.4,315.71702824921744,957116585791715.5
1.7099999999999968e-08,1856867.3681434283,-106178730193016.81,316.0690435663561,982239461032687.4
1.719999999999997e-08,1896018.7834300327,-109339101188241.64,316.4275607000856,1008567884906615.0
1.729999999999997e-08,1936583.3121100417,-112655616687873.58,316.7926647580796,1036174492199111.2
1.739999999999997e-08,1978641.3100738465,-116138557136428.56,317.16444111770227,1065136937408137.4
1.749999999999997e-08,2022278.7377167486,-119799006669866.81,317.54297540493866,1095538279943760.5
1.7599999999999972e-08,2067587.6085860257,-123648924613179.78,317.9283534727972,1127467401333670.0
1.7699999999999973e-08,2114666.4778616405,-127701223984757.77,318.3206613791867,1161019457265710.2
1.7799999999999974e-08,2163620.9745021416,-131969857748382.06,318.7199853642676,1196296367561768.0
1.7899999999999975e-08,2214564.3812802765,-136469913636983.47,319.12641182727697,1233407347465813.5
1.7999999999999976e-08,2267618.2673682934,-141217718465466.7,319.54002730282946,1272469483945279.8
1.8099999999999977e-08,2322913.178615593,-146230952954106.34,319.9609184366942,1313608361052028.2
1.8199999999999978e-08,2380589.3911966807,-151528778200678.03,320.3891719610497,1356958738769952.2
1.829999999999998e-08,2440797.734901234,-157131975070115.12,320.8248746692186,1402665290194172.2
1.839999999999998e-08,2503700.4929971723,-163063097916833.12,321.26811338988387,1450883402345491.5
1.849999999999998e-08,2569472.386329406,-169346644218900.97,321.71897496078907,1501780046427368.8
1.859999999999998e-08,2638301.6501297415,-176009241887195.7,322.17754620192636,1555534723885657.5
1.8699999999999982e-08,2710391.2129165605,-183079856219031.38,322.64391388821343,1612340495238638.8
1.8799999999999983e-08,2785959.987866803,-190590018697381.22,323.1181647216651,1672405099311975.0
1.8899999999999984e-08,2865244.2881591194,-198574080096875.3,323.60038530306167,1735952171246043.8
1.8999999999999985e-08,2948499.379028859,-207069490649894.22,324.09066210311886,1803222568448362.2
1.9099999999999986e-08,3036001.1806574594,-216117110354399.53,324.5890814331646,1874475814548727.0
1.9199999999999987e-08,3128048.137557106,-225761552874220.47,325.0957294153259,1949991672387249.2
1.9299999999999988e-08,3224963.2718245992,-236051566897669.53,325.6106919522328,2030071858134613.5
1.939999999999999e-08,3327096.439546654,-247040459287432.28,326.1340546962441,2115041909819170.2
1.949999999999999e-08,3434826.8117653937,-258786564880437.38,326.66590301820133,2205253224827788.8
1.959999999999999e-08,3548565.6037832755,-271353768388421.9,327.20632197571683,2301085282368354.0
1.969999999999999e-08,3668759.0792299667,-284812084516784.6,327.75539628100364,2402948068444510.0
1.9799999999999992e-08,3795891.8582621356,-299238303170776.7,328.3132102682534,2511284722611921.0
1.9899999999999993e-08,3930490.562556921,-314716707465202.5,328.8798478605705,2626574427675706.5
1.9999999999999994e-08,4073127.8334316923,-331339873209019.0,329.4553925364704,2749335565568130.5
2.0099999999999995e-08,4224426.763522154,-349209559613784.94,330.03992729595006,2880129164933032.5
2.0199999999999996e-08,4385065.787028988,-368437702190788.4,330.63353462613964,3019562668460008.0
2.0299999999999996e-08,4555784.078657432,-389147520174161.8,331.23629646654416,3168294050779801.0
2.0399999999999997e-08,4737387.517088699,-411474752356952.44,331.8482941738855,3327036320778352.5
2.0499999999999998e-08,4930755.275209197,-435569036977363.75,332.4696084865535,3496562445538118.5
2.06e-08,5136847.106463965,-461595453269789.56,333.1003194886774,3677710736802397.0
