t(s),Adsorbed H on surface 1 (H m-2),solute flux surface 1 (H m-2 s-1),Total T surface 1 (K),0 value at [0] (H m-3)
1e-10,0.1830370209258643,-1872204676.0210493,300.27846947480504,13098957076168.04
2e-10,0.5511434131624152,-3765041551.939128,300.3272882457189,26280547933456.586
3e-10,1.1058790471765845,-5673680646.912467,300.3665036505554,39528886419486.55
4e-10,1.8486420245362725,-7596465135.901456,300.40142191749374,52836937114580.65
5e-10,2.7807551791163476,-9532621673.891699,300.434018559337,66200965619477.87
6e-10,3.9035062707534944,-11481787573.605686,300.46527407271543,79618881832406.78
7e-10,5.218170992329793,-13443835196.953192,300.4957594340562,93089558378065.31
7.999999999999999e-10,6.726027917399993,-15418789569.839432,300.5258436395885,106612494835596.12
8.999999999999999e-10,8.428369130729685,-17406784236.71812,300.555783722705,120187632008725.84
9.999999999999999e-10,10.326508337437355,-19408035468.147343,300.58576936812887,133815240598286.22
1.1e-09,12.42178740995708,-21422826273.55748,300.61594723716166,147495850474936.66
1.2e-09,14.715581927554071,-23451496084.998055,300.6464352204389,161230203771815.62
1.3e-09,17.209306049758773,-25494433930.680286,300.67733127357945,175019222774221.16
1.4000000000000001e-09,19.904416944726535,-27552073867.74989,300.7087191497778,188863987439792.9
1.5000000000000002e-09,22.8024189219198,-29624891942.03602,300.74067226173065,202765719436721.94
1.6000000000000003e-09,25.904867374022874,-31713404219.808693,300.77325636716466,216725770744874.38
1.7000000000000003e-09,29.213372604366835,-33818165598.669285,300.8065314877827,230745615548078.9
1.8000000000000004e-09,32.729603597170275,-35939769203.47604,300.8405533132846,244826844565645.66
1.9000000000000005e-09,36.45529177503176,-38078846235.59343,300.87537425031746,258971161238034.06
2.0000000000000005e-09,40.39223477921552,-40236066184.40912,300.91104422092127,273180379356326.53
2.1000000000000006e-09,44.54230030204238,-42412137337.29991,300.94761128065073,287456421842634.4
2.2000000000000007e-09,48.90742999629964,-44607807542.95631,300.98512210455925,301801320469399.44
2.3000000000000007e-09,53.489643483474325,-46823865196.14461,301.023622374802,316217216362396.9
2.400000000000001e-09,58.29104248043331,-49061140421.47768,301.0631570939433,330706361172995.75
2.500000000000001e-09,63.3138150626762,-51320506440.737816,301.1037708414298,345271118834998.7
2.600000000000001e-09,68.56024008130379,-53602881113.55465,301.14550798608315,359913967843510.8
2.700000000000001e-09,74.03269175025926,-55909228645.28824,301.18841286419786,374637504010027.6
2.800000000000001e-09,79.7336444201265,-58240561459.16036,301.2325299304833,389444443660809.0
2.900000000000001e-09,85.665677554753,-60597942232.27571,301.27790388737884,404337627255703.9
3.0000000000000012e-09,91.83148092715962,-62982486097.326744,301.3245797970079,419320023412642.75
3.1000000000000013e-09,98.23386005157751,-65395363013.63846,301.372603179095,434394733329569.8
3.2000000000000014e-09,104.87574186899343,-67837800312.843994,301.4220200974587,449564995601040.25
3.3000000000000014e-09,111.76018070427199,-70311085425.97813,301.4728772371514,464834191431332.5
3.4000000000000015e-09,118.89036451375196,-72816568800.17906,301.52522197389993,480205850249955.44
3.5000000000000016e-09,126.26962144317437,-75355667014.53194,301.57910243717737,495683655739014.8
3.6000000000000016e-09,133.90142671689486,-77929866105.92168,301.63456756798416,511271452285175.75
3.7000000000000017e-09,141.78940988055942,-80540725117.08784,301.6916671722158,526973251872011.7
3.800000000000002e-09,149.93736242078663,-83189879880.44775,301.75045197033694,542793241431450.5
3.900000000000002e-09,158.3492457869045,-85879047052.65851,301.8109736439558,558735790675872.0
4.000000000000002e-09,167.02919984144398,-88610028416.3746,301.87328487978857,574805460435233.4
4.100000000000002e-09,175.98155176790164,-91384715467.22003,301.9374394114242,591007011526449.9
4.200000000000002e-09,185.2108254662633,-94205094305.6648,302.0034920592302,607345414185172.1
4.300000000000002e-09,194.72175146893798,-97073250855.27745,302.07149876868687,623825858093111.6
4.400000000000002e-09,204.5192774121038,-99991376430.75659,302.1415166473915,640453763037220.4
4.500000000000002e-09,214.60857910002744,-102961773681.2069,302.21360400093624,657234790240339.4
4.600000000000002e-09,224.995072202708,-105986862936.39218,302.2878203678344,674174854406446.0
4.700000000000002e-09,235.68442463022782,-109069188986.1233,302.36422655364026,691280136527367.4
4.8000000000000024e-09,246.68256963049674,-112211428325.61398,302.4428846643904,708557097501828.9
4.9000000000000025e-09,257.99571966066964,-115416396902.5216,302.5238581394721,726012492621997.1
5.0000000000000026e-09,269.63038108643104,-118687058404.56319,302.60721178401104,743653386987299.6
5.100000000000003e-09,281.59336976760505,-122026533130.05794,302.6930118008582,761487171910290.2
5.200000000000003e-09,293.8918275931927,-125438107487.52008,302.7813258222413,779521582384715.4
5.300000000000003e-09,306.5332400340065,-128925244174.59552,302.8722229411407,797764715691778.4
5.400000000000003e-09,319.5254547865949,-132491593091.16704,302.9657737424382,816225051226928.5
5.500000000000003e-09,332.8767015881819,-136141003046.46527,303.0620503338816,834911471636375.2
5.600000000000003e-09,346.5956132889334,-139877534325.5007,303.16112637690156,853833285360008.5
5.700000000000003e-09,360.69124827505806,-143705472186.18045,303.2630771173118,873000250685536.5
5.800000000000003e-09,375.173114344124,-147629341365.11786,303.36797941591857,892422601427519.2
5.900000000000003e-09,390.0511941425839,-151653921677.47006,303.47591177906213,912111074354640.0
6.000000000000003e-09,405.33597228493466,-155784264804.21503,303.5869543891086,932076938499099.1
6.100000000000003e-09,421.03846428427244,-160025712369.19745,303.70118913490785,952332026493538.9
6.200000000000003e-09,437.1702474353398,-164383915418.11935,303.8186996422299,972888768093488.0
6.3000000000000035e-09,453.74349380360076,-168864855422.53802,303.9395713041901,993760226057089.2
6.4000000000000035e-09,470.77100548754214,-173474866943.9789,304.06389131167094,1014960134568936.5
6.500000000000004e-09,488.2662523364163,-178220662106.60968,304.1917486837464,1036502940411360.2
6.600000000000004e-09,506.2434123221593,-183109357041.705,304.3232342981127,1058403847104581.6
6.700000000000004e-09,524.717414782405,-188148500483.53177,304.45844092152845,1080678862257007.2
6.800000000000004e-09,543.7039867715499,-193346104714.47797,304.5974632402644,1103344848388707.8
6.900000000000004e-09,563.219702778922,-198710679077.49164,304.74039789056275,1126419577515041.5
7.000000000000004e-09,583.282038097486,-204251266296.38257,304.8873434891047,1149921789803680.0
7.100000000000004e-09,603.9094261534535,-209977481869.5692,305.0384006634826,1173871256647191.5
7.200000000000004e-09,625.1213201369425,-215899556830.7704,305.19367208267334,1198288848525167.5
7.300000000000004e-09,646.938259306771,-222028384201.22952,305.35326248750835,1223196608064911.5
7.400000000000004e-09,669.3819403789589,-228375569492.77353,305.5172787211338,1248617828748330.8
7.500000000000004e-09,692.4752944489488,-234953485659.8042,305.6858297594549,1274577139755259.2
7.600000000000004e-09,716.2425699424233,-241775332941.66205,305.85902674155653,1301100597480437.8
7.700000000000003e-09,740.7094221394166,-248855204085.35513,306.0369830000921,1328215784313286.8
7.800000000000002e-09,765.9030098717917,-256208155492.98294,306.2198140916321,1355951915326961.5
7.900000000000001e-09,791.8521000557579,-263850284899.16736,306.407637826962,1384339953586623.8
8e-09,818.5871807897031,-271798816252.20157,306.60057430132,1413412734857065.0
8.1e-09,846.1405838240776,-280072192549.5043,306.7987459245634,1443205102567567.2
8.199999999999999e-09,874.5466172953762,-288690177464.3955,307.002277451252,1473754053978062.8
8.299999999999998e-09,903.8417097115401,-297673966698.5133,307.2112960106373,1505098898586225.2
8.399999999999997e-09,934.0645662826053,-307046310103.83014,307.42593113654414,1537281429921201.8
8.499999999999997e-09,965.25633880961,-316831645741.87195,307.6463147971317,1570346111987515.2
8.599999999999996e-09,997.4608104782803,-327056247187.407,307.8725814245213,1604340281753635.8
8.699999999999995e-09,1030.7245970537065,-337748385541.63086,308.1048679442758,1639314369225400.8
8.799999999999994e-09,1065.0973661402627,-348938507798.44,308.3433138047165,1675322136806634.2
8.899999999999994e-09,1100.6320763598237,-360659433409.6306,308.58806100606307,1712420939829996.2
8.999999999999993e-09,1137.3852385137056,-372946571124.07324,308.83925412938015,1750672010342521.0
9.099999999999992e-09,1175.4172010329003,-385838158436.19244,309.0970403653155,1790140766455050.2
9.199999999999991e-09,1214.7924622907278,-399375526274.72046,309.3615695426132,1830897149815736.8
9.29999999999999e-09,1255.5800126562317,-413603391898.99316,309.6329941563852,1873015994048226.5
9.39999999999999e-09,1297.8537095102768,-428570183353.04285,309.9114693961241,1916577427308775.0
9.499999999999989e-09,1341.6926888349626,-444328399264.23944,310.1971531734398,1961667312467585.2
9.599999999999988e-09,1387.1818174269943,-460935008271.45306,310.4902061495024,2008377728812856.5
9.699999999999988e-09,1434.412190284426,-478451892936.8672,310.7907917621727,2056807499616823.8
9.799999999999987e-09,1483.481678282203,-496946343646.5918,311.09907625280215,2107062770397589.8
9.899999999999986e-09,1534.4955318949594,-516491608750.70844,311.4152286926833,2159257643265814.2
9.999999999999985e-09,1587.5670474569442,-537167508047.9435,311.73942100913104,2213514873369279.2
1.0099999999999985e-08,1642.8183032818165,-559061117701.089,312.07182801117636,2269966634150079.5
1.0199999999999984e-08,1700.380973914636,-582267535796.3066,312.41262741485116,2328755358919026.5
1.0299999999999983e-08,1760.3972318722547,-606890739056.0583,312.76199986804505,2390034667141576.5
1.0399999999999982e-08,1823.0207474670158,-633044542708.8491,313.1201289749134,2453970384832707.5
1.0499999999999982e-08,1888.417798725997,-660853677241.0011,313.487201319816,2520741669590005.0
1.059999999999998e-08,1956.7685050417394,-690454997743.9823,313.8634064907647,2590542252072392.5
1.069999999999998e-08,2028.2682000528162,-721998843868.989,314.24893710236006,2663581807176597.5
1.079999999999998e-08,2103.128961391473,-755650571060.3641,314.6439888181941,2740087469797572.5
1.0899999999999978e-08,2181.581317394994,-791592276821.437,315.04876037269804,2820305511909198.5
1.0999999999999978e-08,2263.876153709053,-830024749342.1665,315.4634535924132,2904503199797902.5
1.1099999999999977e-08,2350.2868459754854,-871169669971.4631,315.88827341666257,2992970852659183.5
1.1199999999999976e-08,2441.1116485646357,-915272105847.9622,316.3234279176004,3086024126465383.5
1.1299999999999975e-08,2536.676373666861,-962603334628.531,316.76912831961766,3184006550078361.0
1.1399999999999975e-08,2637.3374000968274,-1013464049813.0529,317.2255890180803,3287292344065877.5
1.1499999999999974e-08,2743.485057003151,-1068188002821.5901,317.69302759737724,3396289556646448.0
1.1599999999999973e-08,2855.5474344504664,-1127146146931.244,318.17166484825503,3511443555704274.0
1.1699999999999972e-08,2973.9946807114816,-1190751358656.679,318.66172478441604,3633240920964733.5
1.1799999999999972e-08,3099.3438552623184,-1259463824436.2673,319.1634346583562,3762213786295165.5
1.1899999999999971e-08,3232.1644171395665,-1333797194893.1365,319.6770249764195,3898944688803389.0
1.199999999999997e-08,3373.0844407573527,-1414325625868.372,320.20272951304446,4044071989072442.5
1.209999999999997e-08,3522.7976658122298,-1501691845339.1294,320.7407853241802,4198295935638897.5
1.2199999999999969e-08,3682.071504896665,-1596616408794.9463,321.2914327598468,4362385456861155.0
1.2299999999999968e-08,3851.756152343019,-1699908333318.57,321.8549154758169,4537185774827353.0
1.2399999999999967e-08,4032.794961158499,-1812477333302.2068,322.431480444394,4723626949144844.0
1.2499999999999966e-08,4226.236282318798,-1935347919384.2822,323.02137796426433,4922733473595814.0
1.2599999999999966e-08,4433.246992917372,-2069675667966.8013,323.6248616693963,5135635066039835.0
1.2699999999999965e-08,4655.12797761906,-2216766022951.6323,324.24218853696556,5363578811946732.0
1.2799999999999964e-08,4893.331872618647,-2378096055781.1665,324.8736188942802,5607942844962394.0
1.2899999999999963e-08,5149.48343414852,-2555339686490.5034,325.5194164246823,5870251774423852.0
1.2999999999999963e-08,5425.4029560641275,-2750396959695.7427,326.1798481724017,6152194100304856.0
1.3099999999999962e-08,5723.133235023236,-2965428078180.5854,326.85518454633825,6455641891338521.0
1.3199999999999961e-08,6044.970669504229,-3202893026538.105,327.545699322748,6782673042786935.0
1.329999999999996e-08,6393.5011830772255,-3465597772460.2236,328.25166964680966,7135596477393751.0
1.339999999999996e-08,6771.6417862025755,-3756748218937.6753,328.9733760330478,7516980707498749.0
1.3499999999999959e-08,7182.688738312361,-4080013303142.5537,329.71110236458856,7929686239322359.0
1.3599999999999958e-08,7630.373447781625,-4439598904777.52,330.4651358912241,8376902373458617.0
1.3699999999999957e-08,8118.927457366905,-4840334547514.577,331.2357672262633,8862189040304551.0
1.3799999999999956e-08,8653.158113750464,-5287775263172.598,332.02329034214404,9389524407445232.0
1.3899999999999956e-08,9238.536820438734,-5788321453353.756,332.8280025647848,9963359110185254.0
1.3999999999999955e-08,9881.302133703286,-6349360144297.007,333.6502045666525,1.0588678089143078e+16
1.4099999999999954e-08,10588.580394030576,-6979431708401.77,334.49020035852317,1.1271071173244922e+16
1.4199999999999953e-08,11368.527105901712,-7688426945552.237,335.3482972799134,1.201681372625996e+16
1.4299999999999953e-08,12230.492905243424,-8487820410070.218,336.2248059881605,1.283295888454819e+16
1.4399999999999952e-08,13185.218709277498,-9390947072917.2,337.1200404461281,1.3727443158052368e+16
1.4499999999999951e-08,14245.065555506753,-10413330870428.0,338.03431790851704,1.4709207451768342e+16
1.459999999999995e-08,15424.285739194525,-11573075467897.172,338.96795890675816,1.578833589805613e+16
1.469999999999995e-08,16739.34319357694,-12891329729556.91,339.92128723246725,1.6976215279556858e+16
1.4799999999999949e-08,18209.292675311615,-14392843023129.328,340.8946299194403,1.828571827800583e+16
1.4899999999999948e-08,19856.229282120774,-16106628704853.367,341.888317224169,1.9731414317501572e+16
1.499999999999995e-08,21705.822217490117,-18066758062619.887,342.9026826048556,2.1329812395528184e+16
1.509999999999995e-08,23787.949623783592,-20313311804968.14,343.93806269890763,2.309964102744699e+16
1.519999999999995e-08,26137.454847538007,-22893522075633.086,344.99479729889333,2.50621712894388e+16
1.5299999999999952e-08,28795.048823807683,-25863145199114.094,346.0732293269378,2.724158995365494e+16
1.5399999999999953e-08,31808.3885491678,-29288114234934.523,347.1737048075416,2.966543089444317e+16
1.5499999999999954e-08,35233.36807670327,-33246531324887.34,348.2965728388038,3.236507433769955e+16
1.5599999999999954e-08,39135.66638512926,-37831073240768.81,349.44218556203117,3.537632516425782e+16
1.5699999999999955e-08,43592.606187950914,-43151900079590.05,350.61089812971625,3.874008340731081e+16
1.5799999999999956e-08,48695.38967903072,-49340177455611.11,351.8030686718676,4.250312235596375e+16
1.5899999999999957e-08,54551.79188205609,-56552347734081.01,353.0190582606759,4.671899235475731e+16
1.5999999999999958e-08,61289.410334782806,-64975317000572.27,354.25923087349906,5.144907154663357e+16
1.609999999999996e-08,69059.59210569679,-74832763010594.9,355.5239533541528,5.676378853247685e+16
1.619999999999996e-08,78042.18662158053,-86392817126205.14,356.8135953724897,6.274404631864462e+16
1.629999999999996e-08,88451.30673995535,-99977432481968.92,358.1285293822543,6.948288211901127e+16
1.639999999999996e-08,100542.32250416015,-115973824162863.02,359.4691305771993,7.708740371748517e+16
1.6499999999999962e-08,114620.36403724623,-134848458566653.83,360.8357768454502,8.568105035596534e+16
1.6599999999999963e-08,131050.67452302415,-157164182805687.75,362.2288487221065,9.540623469949499e+16
1.6699999999999964e-08,150271.23426653707,-183601226549364.03,363.64872934006553,1.064274325924145e+17
1.6799999999999965e-08,172808.17627790442,-214982985110599.75,365.0958043790605,1.1893479935078432e+17
1.6899999999999966e-08,199294.63751721403,-252307712616948.12,366.57046201289916,1.3314840558695051e+17
1.6999999999999967e-08,230493.84393963285,-296787528811339.7,368.07309285489555,1.4932320244770374e+17
1.7099999999999968e-08,267327.41940551426,-349896486267498.7,369.6040899014837,1.6775484616250003e+17
1.719999999999997e-08,310910.1479403631,-413429874026730.06,371.16384847400536,1.88786535530711e+17
1.729999999999997e-08,362592.71777799923,-489577470821729.9,372.7527661586643,2.1281704412617926e+17
1.739999999999997e-08,424014.3492387775,-581014133794418.4,374.3712427446386,2.403101623951561e+17
1.749999999999997e-08,497167.675847118,-691011951762143.0,376.0196801603449,2.718058044590835e+17
1.7599999999999972e-08,584478.8331952282,-823579249523150.5,377.69848240784984,3.079330814828446e+17
1.7699999999999973e-08,688906.4431851382,-983633056737611.0,379.40805549542176,3.4942569933064154e+17
1.7799999999999974e-08,814064.1006073477,-1177213321333054.8,381.1488073682192,3.971401045684355e+17
1.7899999999999975e-08,964372.1227141283,-1411749241151941.5,382.9211478371128,4.520768816606498e+17
1.7999999999999976e-08,1145245.7713300518,-1696390719694502.5,384.72548850563663,5.154059977990749e+17
1.8099999999999977e-08,1363328.9779097107,-2042421262392095.0,386.56224269506845,5.884966029855302e+17
1.8199999999999978e-08,1626784.8918280287,-2463772795661479.5,388.4318253676359,6.729522250835873e+17
1.829999999999998e-08,1945657.4536945373,-2977668135171920.0,390.33465304784863,7.706523564977668e+17
1.839999999999998e-08,2332321.8236405607,-3605423433945891.0,392.27114374195764,8.838016156080951e+17
1.849999999999998e-08,2802046.0653703306,-4373451260600344.0,394.24171685554074,1.014987887634617e+18
1.859999999999998e-08,3373692.2482463038,-5314515441898855.0,396.2467931092174,1.1672511128160264e+18
1.8699999999999982e-08,4070592.3954788996,-6469302018060250.0,398.28679445249566,1.3441647024687936e+18
1.8799999999999983e-08,4921643.873511247,-7888387318439990.0,400.3621439757536,1.5499319349049687e+18
1.8899999999999984e-08,5962680.388178118,-9634705170616164.0,402.47326582036015,1.789500124295451e+18
1.8999999999999985e-08,7238189.3627766175,-1.1786641744362964e+16,404.62058508693974,2.0686958793565947e+18
1.9099999999999986e-08,8803464.926198741,-1.4441919936751372e+16,406.8045277417881,2.394385390578549e+18
1.9199999999999987e-08,10727309.053712232,-1.7722477332064008e+16,409.0255205214431,2.774664422776956e+18
1.9299999999999988e-08,13095422.86702735,-2.1780594896000696e+16,411.28399083542195,3.219083565513161e+18
1.939999999999999e-08,16014667.343924735,-2.6806600553163256e+16,413.58036666712854,3.738915332755887e+18
1.949999999999999e-08,19618419.773071554,-3.303855625601676e+16,415.915076472944,4.3474709349808835e+18
1.959999999999999e-08,24073311.82507391,-4.077444361756691e+16,418.28854907950847,5.060476007016037e+18
1.969999999999999e-08,29587710.39477992,-5.0387497348780376e+16,420.7012135792043,5.896516304914091e+18
1.9799999999999992e-08,36422397.57236252,-6.23455047737883e+16,423.1534992238541,6.87756643390907e+18
1.9899999999999993e-08,44904026.491816476,-7.723510257426848e+16,425.64583531664465,8.029617094626013e+18
1.9999999999999994e-08,55442082.04294412,-9.579236990209656e+16,428.17865110228956,9.383419203756984e+18
2.0099999999999995e-08,68550267.92392598,-1.1894135420480357e+17,430.7523756554463,1.097536663769815e+19
2.0199999999999996e-08,84873484.86758962,-1.4784259018658032e+17,433.3674377674007,1.284854335611416e+19
2.0299999999999996e-08,105221872.4819159,-1.8395420534827395e+17,436.0242658310351,1.5053965395868041e+19
