t(s),Adsorbed H on surface 1 (H m-2),solute flux surface 1 (H m-2 s-1),Total T surface 1 (K),0 value at [0] (H m-3)
1e-06,524862642.29544556,-32916227863979.438,300.11587533001006,2014351451372164.2
2.05e-06,1614445525.3517475,-351393484508126.44,300.29806877834005,3963901838832737.5
3.1525e-06,3174179819.71548,-647173749694132.1,300.536722258877,5371042150473498.0
4.310125e-06,5224649729.974371,-933824264657658.8,300.8283230220665,6674535749301638.0
5.52563125e-06,7810162484.056135,-1222210270682868.8,301.17168604799855,7945204104848439.0
6.8019128125e-06,10995504610.258118,-1521280872733059.8,301.5667650547893,9228701116341450.0
8.142008453125e-06,14866988030.33817,-1839270722782107.2,302.0141649353341,1.0561393309233778e+16
9.54910887578125e-06,19535469939.948036,-2184525150080991.5,302.514899092048,1.1975838376204048e+16
1.1026564319570314e-05,25141210913.347824,-2566141778919213.0,303.07025125342324,1.35041884937205e+16
1.2577892535548829e-05,31860759456.902466,-2994556736812608.5,303.68168794413253,1.5180637843741718e+16
1.4206787162326272e-05,39916296645.86567,-3482161309370999.0,304.3507977124493,1.7043473357916324e+16
1.5917126520442588e-05,49588129485.29313,-4044017615021507.0,305.07924532175525,1.9137065127872036e+16
1.771298284646472e-05,61231328749.07232,-4698739898881573.0,305.868734607038,2.1514027744301772e+16
1.9598631988787957e-05,75297907712.0528,-5469616890348264.0,306.7209764329868,2.423774214785537e+16
2.1578563588227356e-05,92366481464.44756,-6386068986583427.0,307.63765966727055,2.7385423462599164e+16
2.3657491767638723e-05,113182096788.88397,-7485562481376749.0,308.6204239434057,3.1051941607477684e+16
2.584036635602066e-05,138709968586.6687,-8816143893407003.0,309.6708335282893,3.535464363093562e+16
2.8132384673821694e-05,170208325242.98868,-1.0439814427764854e+16,310.79035197240285,4.04394894450524e+16
3.053900390751278e-05,209327628896.99243,-1.2437043265856916e+16,311.9803174772746,4.648889857939139e+16
3.306595410288842e-05,258246348882.4304,-1.491282649496856e+16,313.24191910058994,5.373181962752946e+16
3.571925180803284e-05,319857586117.436,-1.8004846778262376e+16,314.57617405353346,6.245668326275788e+16
3.850521439843448e-05,398026684048.1246,-2.189449197432107e+16,315.9839064379309,7.30280934056236e+16
4.143047511835621e-05,497948246378.6078,-2.682176873732548e+16,317.4657278303185,8.590836135302176e+16
4.4501998874274025e-05,626642750781.0964,-3.310552655630442e+16,319.02202015176834,1.0168530960682963e+17
4.772709881798773e-05,793649676944.8618,-4.1170924900928776e+16,320.6529212717522,1.2110818473762502e+17
5.111345375888712e-05,1011997852670.2467,-5.158677955888051e+16,322.35831378631286,1.451340453889711e+17
5.4669126446831475e-05,1299567533916.6523,-6.51163783710465e+16,324.13781738926923,1.7498766139010624e+17
5.8402582769173055e-05,1681006774343.827,-8.278664684259963e+16,325.99078522293087,2.1223880827419232e+17
6.232271190763171e-05,2190432831081.7712,-1.0598228314575838e+17,327.9163045534846,2.5890191135630333e+17
6.64388475030133e-05,2875246027438.0703,-1.3657381750698699e+17,329.9132020661729,3.1756433714125184e+17
7.076078987816397e-05,3801520331237.1187,-1.7709167561400614e+17,331.9800540151914,3.915513104158704e+17
7.529882937207217e-05,5061628237417.027,-2.3096248994838038e+17,334.11520139196165,4.8513752937584934e+17
8.006377084067578e-05,6785030117761.558,-3.028294311218994e+17,336.3167701907708,6.038181509549855e+17
8.506695938270958e-05,9153541626576.18,-3.989856418087631e+17,338.5826967504847,7.546550357508545e+17
9.032030735184505e-05,12422930804778.41,-5.279594869007818e+17,340.9107580350112,9.467181107251002e+17
9.583632271943731e-05,16953449652373.133,-7.013029743511084e+17,343.29860658294706,1.1916465873977405e+18
0.00010162813885540918,23252956338999.875,-9.346512287953215e+17,345.7438097097627,1.504360747055241e+18
0.00010770954579817965,32037747991246.57,-1.2491424172565645e+18,348.2438923884914,1.9039622712839337e+18
0.00011409502308808864,44318255875585.47,-1.6733153901123515e+18,350.7963830713948,2.4148698419352105e+18
0.00012079977424249307,61519565978187.25,-2.2456381145719322e+18,353.3988615537908,3.068247066267685e+18
0.00012783976295461773,85650255057983.4,-3.017816940372793e+18,356.0490078303971,3.9037364681509786e+18
0.00013523175110234862,119539728911127.9,-4.0593424376119465e+18,358.7446507647058,4.971815602037643e+18
0.00014299333865746606,167169017448963.0,-5.463236168045203e+18,361.4838152941533,6.33644311550245e+18
0.00015114300559033938,234131863055859.66,-7.353721975755714e+18,364.2647668383694,8.07848258641857e+18
0.00015970015586985636,328274737762006.6,-9.896143018598963e+18,367.086051575927,1.029981046478321e+19
0.0001686851636633492,460581130884709.94,-1.3309680852067555e+19,369.9465313122707,1.312819538529025e+19
0.00017811942184651667,646385816003043.4,-1.7883385151293598e+19,372.84541178618326,1.6722907668810596e+19
0.00018802539293884252,907028066001317.0,-2.3995838014333936e+19,375.78226345201125,2.128081769202512e+19
0.00019802539293884252,1254064335971855.2,-3.177234327214353e+19,378.64570455752346,2.678789839081812e+19
0.00020802539293884252,1705196508232708.2,-4.144450960407027e+19,381.41525541238497,3.3307951449616114e+19
0.00021802539293884252,2283792879359762.5,-5.3315146685297074e+19,384.0978526096589,4.094261554262528e+19
0.00022802539293884251,3016494217424461.0,-6.7693871089686634e+19,386.699891952015,4.978343744183596e+19
0.00023802539293884251,3933164911146910.5,-8.488420717470468e+19,389.2272338633431,5.9905430808112955e+19
0.0002480253929388425,5066678624285685.0,-1.0516706682921158e+20,391.6852289107551,7.135973123858638e+19
0.00025802539293884254,6450858511221368.0,-1.2863586481832876e+20,394.05075482741705,8.410093015865292e+19
0.00026802539293884257,8120842613926146.0,-1.554019142300415e+20,396.3391270842781,9.808170309973443e+19
0.0002780253929388426,1.0112563285896556e+16,-1.855218644472009e+20,398.5629275593263,1.1322901126097319e+20
0.0002880253929388426,1.2461798193240914e+16,-2.1895894010618744e+20,400.72908908646775,1.2943041363905146e+20
0.00029802539293884264,1.52032453178229e+16,-2.5558400647698956e+20,402.8427229690433,1.4653863137308246e+20
0.00030802539293884267,1.8369684128016844e+16,-2.9518404126671326e+20,404.907932642029,1.6438054525174723e+20
0.0003180253929388427,2.199131847263436e+16,-3.374803062595622e+20,406.9281526299807,1.8276971828226864e+20
0.0003280253929388427,2.6095377582604588e+16,-3.821541619921824e+20,408.9063306162976,2.015206765846732e+20
0.00033802539293884275,3.070601164029403e+16,-4.288765036992142e+20,410.8450400705071,2.204626997797457e+20
0.0003480253929388428,3.584446964854159e+16,-4.77335951486959e+20,412.7465563265372,2.394509503750397e+20
0.0003580253929388428,4.152950302638486e+16,-5.2726138498530745e+20,414.612911055344,2.5837340812556173e+20
0.00036802539293884283,4.777790959592771e+16,-5.7843596952180215e+20,416.44593289114425,2.7715305591018288e+20
0.00037802539293884285,5.460512480381794e+16,-6.307019081033512e+20,418.24727866064046,2.9574576565518965e+20
0.0003880253929388429,6.202577871236869e+16,-6.839570928701135e+20,420.01845796355866,3.1413506690567805e+20
0.0003980253929388429,7.0054161896476184e+16,-7.381461090558116e+20,421.7608528969545,3.3232529597883626e+20
0.00040802539293884293,7.87045723130247e+16,-7.932484700933689e+20,423.4757341417921,3.5033453336730645e+20
0.00041802539293884296,8.799154100070651e+16,-8.492666468984715e+20,425.1642742664207,3.68188371902622e+20
0.000428025392938843,9.792995260538363e+16,-9.06215691933946e+20,426.8275588618135,3.859150891063005e+20
0.000438025392938843,1.0853508597421088e+17,-9.641153750631607e+20,428.46659596029787,4.035423686147947e+20
0.00044802539293884304,1.1982260168321786e+17,-1.022984990869848e+21,430.0823240762643,4.210954112525258e+20
0.00045802539293884306,1.3180849988782654e+17,-1.0828404912967005e+21,431.6756191266249,4.385961174329882e+20
0.0004680253929388431,1.4450906599194013e+17,-1.1436933574832824e+21,433.2473004298369,4.560629862002235e+20
0.0004780253929388431,1.579408154317552e+17,-1.2055505943529076e+21,434.79813593983204,4.735114195080953e+20
0.00048802539293884314,1.7212044364403443e+17,-1.2684153280571745e+21,436.32884683860925,4.90954200015522e+20
0.0004980253929388432,1.8706478354489008e+17,-1.332287633578221e+21,437.8401115867798,5.0840199434400596e+20
0.0005080253929388432,2.0279077055591437e+17,-1.397165364263762e+21,439.3325695129196,5.258638029782182e+20
0.0005180253929388432,2.1931541407179405e+17,-1.4630448690658872e+21,440.8068240075381,5.433473262848885e+20
0.0005280253929388432,2.3665577388527917e+17,-1.5299215593553485e+21,442.26344537636436,5.608592447293851e+20
0.0005380253929388433,2.548289401353296e+17,-1.597790329900425e+21,443.7029733983153,5.784054250667004e+20
0.0005480253929388433,2.738520155817739e+17,-1.6666458573748579e+21,445.1259196262296,5.959910684991398e+20
0.0005580253929388433,2.9374209928982746e+17,-1.7364828040695337e+21,446.53276946247746,6.136208159816037e+20
0.0005680253929388434,3.1451627105910035e+17,-1.8072959516585975e+21,447.92398403678317,6.312988230308953e+20
0.0005780253929388434,3.361915761299563e+17,-1.8790802845831452e+21,449.30000190968224,6.49028813257609e+20
0.0005880253929388434,3.5878500984531315e+17,-1.951831037306724e+21,450.6612406215151,6.668141171455354e+20
0.0005980253929388434,3.82313502048638e+17,-2.0255437154045408e+21,452.0080981041592,6.84657700579474e+20
0.0006080253929388435,4.0679390107123155e+17,-2.1002140973633584e+21,453.34095397063334,7.025621862184223e+20
0.0006180253929388435,4.322429572136529e+17,-2.1758382218599958e+21,454.6601706955175,7.205298698698125e+20
0.0006280253929388435,4.5867730566483354e+17,-2.2524123639294743e+21,455.9660946974248,7.385627334100122e+20
0.0006380253929388435,4.8611344883341805e+17,-2.329933002610261e+21,457.25905733365624,7.566624554084435e+20
0.0006480253929388436,5.1456773809160224e+17,-2.4083967820952817e+21,458.53937581567914,7.748304203451436e+20
0.0006580253929388436,5.440563549543346e+17,-2.487800468075006e+21,459.8073540531495,7.930677271323256e+20
0.0006680253929388436,5.7459529173713734e+17,-2.568140900722925e+21,461.0632834333266,8.113751975193319e+20
0.0006780253929388436,6.062003317543776e+17,-2.649414945593215e+21,462.3074435419184,8.297533848570338e+20
0.0006880253929388437,6.388870291367574e+17,-2.731619443552793e+21,463.5401028306933,8.482025836123487e+20
0.0006980253929388437,6.726706883623923e+17,-2.814751160762912e+21,464.7615192367476,8.667228399554272e+20
0.0007080253929388437,7.075663436095593e+17,-2.898806739589765e+21,465.971940757601,8.853139636718663e+20
0.0007180253929388437,7.435887380515404e+17,-2.983782651243158e+21,467.17160598606694,9.039755416002632e+20
0.0007280253929388438,7.807523032240328e+17,-3.069675150801216e+21,468.3607446081337,9.22706952731677e+20
0.0007380253929388438,8.190711386046327e+17,-3.156480235252711e+21,469.5395778673065,9.415073850750472e+20
0.0007480253929388438,8.585589915497546e+17,-3.244193605001871e+21,470.7083189978262,9.603758543231754e+20
0.0007580253929388439,8.9922923773891e+17,-3.3328106292521054e+21,471.86717362943676,9.793112243259782e+20
0.0007680253929388439,9.410948622786487e+17,-3.4223263155969673e+21,473.01634016606937,9.98312229336905e+20
0.0007780253929388439,9.841684416181601e+17,-3.512735284023955e+21,474.1560101403306,1.0173774979518705e+21
0.0007880253929388439,1.0284621264266063e+18,-3.604031745504519e+21,475.2863685458143,1.0365055786373254e+21
0.000798025392938844,1.0739876255775988e+18,-3.696209485225768e+21,476.40759414877596,1.0556949667031672e+21
0.000808025392938844,1.1207561913800877e+18,-3.789261850501375e+21,477.5198597808769,1.0749441325613348e+21
0.000818025392938844,1.1687786061861527e+18,-3.883181743289528e+21,478.62333261425994,1.0942515510766816e+21
0.000828025392938844,1.2180651704962598e+18,-3.9779616172479364e+21,479.71817442044613,1.1136157318112762e+21
0.0008380253929388441,1.2686256926698655e+18,-4.073593479128153e+21,480.80454181396755,1.1330352499302329e+21
0.0008480253929388441,1.3204694803359606e+18,-4.170068894341422e+21,481.8825864820002,1.1525087775433367e+21
0.0008580253929388441,1.3736053335829266e+18,-4.267378996447028e+21,482.95245540090525,1.1720351152397522e+21
0.0008680253929388441,1.4280415399909338e+18,-4.365514500298125e+21,484.01429104061333,1.191613223574079e+21
0.0008780253929388442,1.4837858715530634e+18,-4.4644657185522576e+21,485.06823155770763,1.2112422542628372e+21
0.0008880253929388442,1.5408455835133412e+18,-4.564222581208791e+21,486.11441097788054,1.2309215808503032e+21
0.0008980253929388442,1.5992274151318415e+18,-4.6647746578448814e+21,487.1529593685269,1.250650828617074e+21
0.0009080253929388442,1.6589375923688105e+18,-4.766111182204242e+21,488.1840030021473,1.2704299035156637e+21
0.0009180253929388443,1.719981832461481e+18,-4.868221078768319e+21,489.207664511109,1.2902590199288727e+21
0.0009280253929388443,1.7823653503495846e+18,-4.971092990949811e+21,490.2240630343421,1.3101387270680622e+21
0.0009380253929388443,1.8460928668885102e+18,-5.074715310545709e+21,491.2333143564847,1.3300699338482954e+21
0.0009480253929388443,1.9111686187728054e+18,-5.179076208082738e+21,492.23553103991907,1.350053932098525e+21
0.0009580253929388444,1.9775963700778537e+18,-5.284163663716262e+21,493.2308225501973,1.3700924179939179e+21
0.0009680253929388444,2.0453794253136128e+18,-5.38996549832498e+21,494.21929537518247,1.3901875116171044e+21
0.0009780253929388444,2.1145206438724035e+18,-5.496469404500793e+21,495.201053138393,1.4103417745911558e+21
0.0009880253929388445,2.1850224557416622e+18,-5.603662977088761e+21,496.17619670673656,1.4305582257414485e+21
0.0009980253929388445,2.256886878344342e+18,-5.711533743037515e+21,497.144824293162,1.45084035478922e+21
0.0010080253929388445,2.330115534362051e+18,-5.820069190252467e+21,498.1070315543433,1.4711921340876016e+21
0.0010180253929388445,2.4047096703913605e+18,-5.929256795250656e+21,499.0629116838351,1.4916180284547135e+21
0.0010280253929388446,2.480670176279902e+18,-6.03908404936392e+21,500.01255550079696,1.5121230031674524e+21
0.0010380253929388446,2.557997604988196e+18,-6.149538483362548e+21,500.95605153475276,1.5327125302236133e+21
0.0010480253929388446,2.6366921928226857e+18,-6.260607690278293e+21,501.8934861063605,1.553392592977337e+21
0.0010580253929388446,2.716753879888214e+18,-6.372279346346851e+21,502.82494340459334,1.5741696892961984e+21
0.0010680253929388447,2.7981823306116997e+18,-6.484541229956828e+21,503.7505055604716,1.5950508333935294e+21
0.0010780253929388447,2.8809769541941437e+18,-6.597381238542695e+21,504.6702527175637,1.6160435565099926e+21
0.0010880253929388447,2.9651369248540984e+18,-6.710787403333114e+21,505.584263099272,1.637155906621187e+21
0.0010980253929388447,3.0506612017347364e+18,-6.824747902030741e+21,506.4926130733999,1.65839644738671e+21
0.0011080253929388448,3.1375485483539487e+18,-6.939251069312396e+21,507.3953772137387,1.6797742565225126e+21
0.0011180253929388448,3.225797551487978e+18,-7.054285405287165e+21,508.2926283591988,1.7012989238297805e+21
0.0011280253929388448,3.3154066393884237e+18,-7.169839581884144e+21,509.1844376703498,1.722980549080628e+21
0.0011380253929388448,3.406374099243818e+18,-7.285902447278284e+21,510.07087468363846,1.7448297399864826e+21
0.0011480253929388449,3.49869809380795e+18,-7.402463028424566e+21,510.9520073633558,1.7668576104646498e+21
0.001158025392938845,3.592376677128689e+18,-7.519510531818808e+21,511.82790215153244,1.7890757794237786e+21
0.001168025392938845,3.6874078093215483e+18,-7.637034342529988e+21,512.6986240156672,1.811496370269991e+21
0.001178025392938845,3.783789370344636e+18,-7.755024021721834e+21,513.5642364947046,1.8341320113632156e+21
0.001188025392938845,3.881519172741279e+18,-7.873469302690531e+21,514.4248017430488,1.8569958376103443e+21
0.001198025392938845,3.980594973327994e+18,-7.992360085623862e+21,515.2803805729422,1.8801014934100404e+21
0.001208025392938845,4.0810144838146043e+18,-8.111686431149235e+21,516.1310324950979,1.9034631371315114e+21
0.001218025392938845,4.1827753803532954e+18,-8.231438552854206e+21,516.9768157578247,1.9270954473258906e+21
0.001228025392938845,4.2858753120214103e+18,-8.351606808863168e+21,517.8177873845839,1.9510136308445083e+21
0.0012380253929388451,4.3903119082512236e+18,-8.472181692639583e+21,518.6540032101739,1.975233433050118e+21
0.0012480253929388451,4.496082785226571e+18,-8.593153823100619e+21,519.4855179155093,1.999771150287811e+21
0.0012580253929388452,4.6031855512726395e+18,-8.714513934174539e+21,520.3123850611018,2.0246436447882392e+21
0.0012680253929388452,4.711617811234972e+18,-8.836252858962623e+21,521.1346571193161,2.0498683615926052e+21
0.0012780253929388452,4.821377170061844e+18,-8.958361537891101e+21,521.9523855054088,2.0754633511092858e+21
0.0012880253929388452,4.932461235275255e+18,-9.080830978822125e+21,522.7656206074569,2.101447288917342e+21
0.0012980253929388453,5.044867618726829e+18,-9.203652263699796e+21,523.5744118151903,2.127839504305977e+21
0.0013080253929388453,5.158593937507659e+18,-9.326816532449233e+21,524.3788075477657,2.154660009298018e+21
0.0013180253929388453,5.273637814093221e+18,-9.450314971091504e+21,525.178855280604,2.1819295316757035e+21
0.0013280253929388453,5.389996875770165e+18,-9.574138799918668e+21,525.9746015712338,2.2096695516465146e+21
0.0013380253929388454,5.507668753391659e+18,-9.698279261718593e+21,526.7660920842294,2.237902342347705e+21
0.0013480253929388454,5.626651079507431e+18,-9.822727610095056e+21,527.5533716153182,2.2666510144049478e+21
0.0013580253929388454,5.746941485912713e+18,-9.947475097854203e+21,528.3364841145756,2.2959395647650857e+21
0.0013680253929388455,5.868537600659345e+18,-1.0072512965546588e+22,529.1154727089408,2.3257929300666965e+21
0.0013780253929388455,5.991437044568791e+18,-1.0197832430069974e+22,529.8903797238498,2.356237044803003e+21
0.0013880253929388455,6.115637427284927e+18,-1.0323424673401867e+22,530.6612467042178,2.3872989045908963e+21
0.0013980253929388455,6.241136342900747e+18,-1.0449280831397869e+22,531.4281144346911,2.419006634867808e+21
0.0014080253929388456,6.367931365189561e+18,-1.0575391982631082e+22,532.1910229592116,2.4513895653822253e+21
0.0014180253929388456,6.496020042467549e+18,-1.070174913724288e+22,532.9500115999439,2.4844783108846324e+21
0.0014280253929388456,6.625399892110431e+18,-1.0828343225764928e+22,533.7051189756106,2.5183048584701647e+21
0.0014380253929388456,6.756068394742267e+18,-1.0955165087823135e+22,534.4563830191871,2.5529026620679043e+21
0.0014480253929388457,6.888022988110155e+18,-1.108220546068963e+22,535.2038409950562,2.588306744640351e+21
0.0014580253929388457,7.021261060653568e+18,-1.120945496758566e+22,535.9475295155967,2.6245538087109337e+21
0.0014680253929388457,7.155779944772214e+18,-1.1336904105662637e+22,536.6874845572586,2.661682355915243e+21
0.0014780253929388457,7.291576909790922e+18,-1.1464543233546016e+22,537.4237414760978,2.6997328163458966e+21
0.0014880253929388458,7.428649154615112e+18,-1.1592362558368873e+22,538.1563350228663,2.7387476885611893e+21
0.0014980253929388458,7.566993800064547e+18,-1.1720352122150823e+22,538.8852993576112,2.778771691217156e+21
0.0015080253929388458,7.706607880867452e+18,-1.184850178740167e+22,539.6106680638181,2.8198519274031027e+21
0.0015180253929388458,7.847488337291187e+18,-1.1976801221813725e+22,540.3324741621266,2.8620380628874444e+21
0.0015280253929388459,7.989632006379383e+18,-1.2105239881882425e+22,541.0507501236194,2.9053825196224823e+21
0.001538025392938846,8.13303561277008e+18,-1.2233806996773626e+22,541.7655278827227,2.9499406865434977e+21
0.001548025392938846,8.277695758996059e+18,-1.2362491543600706e+22,542.4768388497145,2.995771146254488e+21
0.001558025392938846,8.423608915327547e+18,-1.2491282234909707e+22,543.1847139228289,3.042935927173517e+21
0.001568025392938846,8.570771408986852e+18,-1.2620167490987616e+22,543.8891835000685,3.0915007731309803e+21
