t(s),Adsorbed H on surface 1 (H m-2),solute flux surface 1 (H m-2 s-1),Total T surface 1 (K),0 value at [0] (H m-3)
1e-10,0.18129956236757752,-1855520243.381924,300.22477745513777,13008737139989.22
2e-10,0.5447268828403782,-3719410066.999854,300.24487898199516,26051268894553.594
3e-10,1.0909145159668878,-5589667873.169905,300.26102611882425,39121018656407.42
4e-10,1.820427239497455,-7465599364.44928,300.27540382786106,52215058037050.39
5e-10,2.7337975728762993,-9346873221.180525,300.28882554783377,65331816005019.2
6e-10,3.831542220766949,-11233326232.519018,300.3016950069781,78470396187539.27
7e-10,5.114171430461721,-13124890855.22565,300.31424730892564,91630295936786.17
7.999999999999999e-10,6.582195020990535,-15021561175.220234,300.32663438954637,104811267831041.42
8.999999999999999e-10,8.236126624385706,-16923374618.11441,300.3389620825448,118013242963906.77
9.999999999999999e-10,10.076486877856368,-18830401214.328796,300.3513084898178,131236284862787.95
1.1e-09,12.103805961094482,-20742736896.233116,300.3637339976349,144480560112639.94
1.2e-09,14.318625706297738,-22660499123.23511,300.37628714536106,157746318772447.53
1.3e-09,16.721501420559292,-24583823935.428947,300.3890082636255,171033880867024.75
1.4000000000000001e-09,19.313003510636612,-26512863928.05435,300.4019318347696,184343626824972.94
1.5000000000000002e-09,22.093718970544696,-28447786844.28884,300.4150880830263,197675990579532.22
1.6000000000000003e-09,25.064252774015966,-30388774598.09121,300.4285040803027,211031454525623.66
1.7000000000000003e-09,28.225229201989045,-32336022605.53525,300.4422045363114,224410545807710.12
1.8000000000000004e-09,31.57729312738034,-34289739343.70875,300.4562123766752,237813833585885.78
1.9000000000000005e-09,35.1211112739895,-36250146081.8815,300.47054917482507,251241927037376.03
2.0000000000000005e-09,38.85737346261607,-38217476746.3163,300.485235480749,264695473922456.4
2.1000000000000006e-09,42.78679385477985,-40191977891.23512,300.5002910754889,278175159592029.56
2.2000000000000007e-09,46.91011220249687,-42173908756.07228,300.5157351712266,291681706347233.2
2.3000000000000007e-09,51.22809511114346,-44163541394.471504,300.53158657085925,305215873084689.7
2.400000000000001e-09,55.74153732139222,-46161160864.28222,300.54786379698066,318778455177606.7
2.500000000000001e-09,60.45126301542419,-48167065470.56506,300.5645851974591,332370284554996.1
2.600000000000001e-09,65.35812715204148,-50181567055.649956,300.5817690329041,345992229950182.3
2.700000000000001e-09,70.46301683487302,-52204991331.81708,300.5994335499685,359645197296426.2
2.800000000000001e-09,75.76685271754864,-54237678253.33228,300.6175970434678,373330130252553.0
2.900000000000001e-09,81.27059044948732,-56279982425.46985,300.63627790959157,387048010845354.9
3.0000000000000012e-09,86.97522216578461,-58332273548.86135,300.65549469196486,400799860218567.1
3.1000000000000013e-09,92.88177802458046,-60394936898.077286,300.67526612192773,414586739480601.25
3.2000000000000014e-09,98.99132779522711,-62468373833.80345,300.6956111541079,428409750645121.5
3.3000000000000014e-09,105.30498250055594,-64553002348.36124,300.7165489981405,442270037660090.06
3.4000000000000015e-09,111.82389611654972,-66649257644.63314,300.73809914721505,456168787522164.56
3.5000000000000016e-09,118.54926733276332,-68757592748.73753,300.76028140399717,470107231474377.4
3.6000000000000016e-09,125.48234137689565,-70878479157.03537,300.78311590436954,484086646285903.25
3.7000000000000017e-09,132.62441190699673,-73012407518.2686,300.8066231393528,498108355613475.9
3.800000000000002e-09,139.97682297489428,-75159888351.82652,300.8308239755022,512173731444661.75
3.900000000000002e-09,147.54097106454387,-77321452803.32773,300.8557396740257,526284195623776.7
4.000000000000002e-09,155.31830720914223,-79497653438.87054,300.88139190882333,540441221461744.25
4.100000000000002e-09,163.31033919099752,-81689065079.48682,300.90780278361797,554646335431664.1
4.200000000000002e-09,171.5186338283196,-83896285677.49257,300.9349948483173,568901118952296.0
4.300000000000002e-09,179.9448193532805,-86119937236.60054,300.96299111472445,583207210262072.2
4.400000000000002e-09,188.59058788589863,-88360666777.8275,300.9918150716978,597566306386646.8
4.500000000000002e-09,197.45769800852003,-90619147353.4032,301.0214906998424,611980165203369.9
4.600000000000002e-09,206.54797744590982,-92896079111.06047,301.0520424858057,626450607606454.0
4.700000000000002e-09,215.86332585622236,-95192190411.27689,301.083495436237,640979519776970.0
4.8000000000000024e-09,225.40571773839497,-97508239000.22528,301.1158750914622,655568855562191.6
4.9000000000000025e-09,235.17720546180612,-99845013241.3936,301.14920753891863,670220638969189.6
5.0000000000000026e-09,245.17992242435648,-102203333409.04787,301.18351942638645,684936966777968.2
5.100000000000003e-09,255.4160863454704,-104584053046.93633,301.21883797504984,699720011279847.5
5.200000000000003e-09,265.88800270087967,-106988060395.86899,301.2551909924148,714572023147212.5
5.300000000000003e-09,276.59806830643913,-109416279894.06012,301.2926068851071,729495334441190.5
5.400000000000003e-09,287.5487750586415,-111869673754.39342,301.3311146715715,744492361764280.8
5.500000000000003e-09,298.74271383994136,-114349243623.05441,301.3707439946886,759565609565443.4
5.600000000000003e-09,310.1825785974745,-116856032324.27773,301.41152513432365,774717673605665.5
5.700000000000003e-09,321.871170604268,-119391125696.29248,301.4534890198214,789951244592562.1
5.800000000000003e-09,333.81140291257833,-121955654523.89752,301.49666724245617,805269111993143.2
5.900000000000003e-09,346.0063050095771,-124550796573.46625,301.541092067846,820674168034481.2
6.000000000000003e-09,358.4590276862258,-127177778736.59917,301.5867964483392,836169411902662.8
6.100000000000003e-09,371.17284813084615,-129837879289.06839,301.63381403537863,851757954151091.4
6.200000000000003e-09,384.15117525960466,-132532430272.15428,301.6821791918483,867443021329941.1
6.3000000000000035e-09,397.3975552968925,-135262820003.99864,301.7319270044072,883227960849339.2
6.4000000000000035e-09,410.9156776193992,-138030495729.1099,301.7830932958119,899116246089690.9
6.500000000000004e-09,424.70938087855177,-140836966414.76147,301.83571463723115,915111481773445.8
6.600000000000004e-09,438.7826594169301,-143683805703.6233,301.88982836055277,931217409613561.0
6.700000000000004e-09,453.1396699952741,-146572655032.66214,301.9454725706841,947437914254927.0
6.800000000000004e-09,467.78473884777685,-149505226929.06284,302.002686157846,963777029526118.1
6.900000000000004e-09,482.7223690845138,-152483308494.69186,302.06150880985865,980238945019993.4
7.000000000000004e-09,497.95724846110255,-155508765091.50342,302.1219810244203,996828013022923.6
7.100000000000004e-09,513.4942575370197,-158583544241.15805,302.1841441213741,1013548755813763.2
7.200000000000004e-09,529.3384782454365,-161709679753.15494,302.24804025496474,1030405873355125.5
7.300000000000004e-09,545.4952028989738,-164889296096.80536,302.31371242607855,1047404251401061.0
7.400000000000004e-09,561.9699436574382,-168124613033.56006,302.38120449446734,1064548970046904.2
7.500000000000004e-09,578.7684424853787,-171417950527.4339,302.45056119095074,1081845312748830.6
7.600000000000004e-09,595.8966816292296,-174771733952.633,302.5218281295941,1099298775842586.5
7.700000000000003e-09,613.3608946458677,-178188499618.95804,302.5950518198585,1116915078592916.2
7.800000000000002e-09,631.1675780166423,-181670900637.13226,302.67027967871707,1134700173807426.5
7.900000000000001e-09,649.3235033833404,-185221713147.95517,302.74756004273536,1152660259051020.0
8e-09,667.8357304451367,-188843842941.02493,302.8269421801085,1170801788499598.5
8.1e-09,686.7116205583803,-192540332490.83286,302.90847630265193,1189131485474511.0
8.199999999999999e-09,705.9588510840841,-196314368440.2258,302.9922135777393,1207656355702206.0
8.299999999999998e-09,725.5854305312524,-200169289563.64713,303.07820614018215,1226383701346774.0
8.399999999999997e-09,745.5997145477036,-204108595245.17276,303.1665071040458,1245321135866538.5
8.499999999999997e-09,766.0104228138654,-208135954509.21802,303.25717057439505,1264476599749608.5
8.599999999999996e-09,786.8266568991455,-212255215644.87903,303.3502516589631,1283858377187360.2
8.699999999999995e-09,808.0579191449538,-216470416468.26074,303.4458064797378,1303475113749189.5
8.799999999999994e-09,829.7141326432952,-220785795270.83304,303.5438921844585,1323335835126616.5
8.899999999999994e-09,851.8056623851056,-225205802505.86334,303.64456695801505,1343449967019936.0
8.999999999999993e-09,874.3433376581977,-229735113269.3932,303.7478900337441,1363827356246151.2
9.099999999999992e-09,897.3384757808685,-234378640636.99457,303.8539217046134,1384478293152918.8
9.199999999999991e-09,920.802907263934,-239141549922.81876,303.9627233342875,1405413535429726.0
9.29999999999999e-09,944.749002501253,-244029273933.16394,304.07435736806667,1426644333414558.8
9.39999999999999e-09,969.1897000967376,-249047529293.09518,304.1888873436917,1448182457001934.0
9.499999999999989e-09,994.1385369444777,-254202333931.51016,304.30637790200535,1470040224266448.2
9.599999999999988e-09,1019.6096801880088,-259500025817.61002,304.4268947974635,1492230531924958.5
9.699999999999988e-09,1045.6179611949876,-264947283049.99048,304.5505049084865,1514766887770251.5
9.799999999999987e-09,1072.178911694701,-270551145408.65057,304.6772762476425,1537663445219631.8
9.899999999999986e-09,1099.3088022380095,-276319037490.2092,304.8072779716539,1560935040133353.2
9.999999999999985e-09,1127.0246831526144,-282258793557.5448,304.94058039121796,1584597230070304.2
1.0099999999999985e-08,1155.3444281810466,-288378684247.1487,305.0772549806326,1608666336161950.0
1.0199999999999984e-08,1184.286781004647,-294687445290.7456,305.21737438721755,1633159487800311.5
1.0299999999999983e-08,1213.8714048741467,-301194308422.3125,305.3610124405226,1658094670351861.0
1.0399999999999982e-08,1244.1189355864497,-307909034657.7467,305.50824416131155,1683490776126741.8
1.0499999999999982e-08,1275.0510380680123,-314841950152.16327,305.6591457703141,1709367658851821.0
1.059999999999998e-08,1306.6904668480033,-322003984859.3886,305.8137946967348,1735746191916924.5
1.069999999999998e-08,1339.0611307294216,-329406714239.82806,305.97226958650896,1762648330686311.5
1.079999999999998e-08,1372.1881619937783,-337062404286.785,306.1346503102958,1790097179192254.8
1.0899999999999978e-08,1406.0979905050763,-344984060167.7325,306.30101797119875,1818117061554671.8
1.0999999999999978e-08,1440.8184231119258,-353185478806.26294,306.47145491220215,1846733598500336.2
1.1099999999999977e-08,1476.3787287830523,-361681305762.8309,306.6460447233141,1875973789387542.0
1.1199999999999976e-08,1512.8097299515307,-370487096808.27,306.82487224840474,1905866100177459.2
1.1299999999999975e-08,1550.1439005872257,-379619384623.87823,307.0080235917297,1936440557832130.2
1.1399999999999975e-08,1588.4154715655811,-389095751106.0054,307.19558612412726,1967728851661416.2
1.1499999999999974e-08,1627.6605439545738,-398934905802.1595,307.38764848887934,1999764442187626.0
1.1599999999999973e-08,1667.9172109009105,-409156771060.13367,307.58430060722395,2032582678147423.5
1.1699999999999972e-08,1709.225688862009,-419782574532.3555,307.7856336835099,2066220922306382.8
1.1799999999999972e-08,1751.6284590026808,-430834949745.1131,307.99174020998066,2100718686822754.8
1.1899999999999971e-08,1795.1704196555247,-442338045517.59674,308.20271397117807,2136117778964188.2
1.199999999999997e-08,1839.89905083272,-454317645099.4875,308.4186500479529,2172462458054907.8
1.209999999999997e-08,1885.8645918751834,-466801295989.45966,308.63964482107264,2209799604611930.2
1.2199999999999969e-08,1933.120233434058,-479818451501.3758,308.8657959744135,2248178902718032.2
1.2299999999999968e-08,1981.7223251004798,-493400625261.7923,309.09720249772687,2287653036777224.5
1.2399999999999967e-08,2031.7306001339643,-507581559952.9164,309.3339646889671,2328277903906419.0
1.2499999999999966e-08,2083.2084188891704,-522397411761.3624,309.57618415617065,2370112843335815.5
1.2599999999999966e-08,2136.223032707039,-537886952156.7832,309.8239638188738,2413220884321493.5
1.2699999999999965e-08,2190.8458702214257,-554091788807.9961,310.0774079090582,2457669014218069.0
1.2799999999999964e-08,2247.152848238671,-571056607650.2277,310.336621971613,2503528468518528.5
1.2899999999999963e-08,2305.2247095776543,-588829438348.2831,310.6017128643003,2550875044844114.5
1.2999999999999963e-08,2365.147390514789,-607461945660.4559,310.87278875721466,2599789443061246.5
1.3099999999999962e-08,2427.0124207654244,-627009749500.2157,311.14995913172334,2650357633916901.5
1.3199999999999961e-08,2490.9173592540533,-647532776821.8315,311.4333347788764,2702671258820982.5
1.329999999999996e-08,2556.966269284925,-669095648826.8043,311.72302779727556,2756828063666438.5
1.339999999999996e-08,2625.2702371269647,-691768107405.875,312.0191515903894,2812932369868151.5
1.3499999999999959e-08,2695.947938477947,-715625485203.2128,312.321820863304,2871095586123004.0
1.3599999999999958e-08,2769.1262577789307,-740749224221.9742,312.63115161889795,2931436764749662.5
1.3699999999999957e-08,2844.94096591828,-767227448492.6641,312.9472611534294,2994083206861387.5
1.3799999999999956e-08,2923.537462503375,-795155597006.9675,313.2702680515249,3059171121063092.5
1.3899999999999956e-08,3005.071589596704,-824637123891.0597,313.60029218055837,3126846340849885.5
1.3999999999999955e-08,3089.710524622145,-855784273666.4922,313.9374546844084,3197265106424016.5
1.4099999999999954e-08,3177.633761059039,-888718940438.2671,314.28187797658467,3270594917246822.0
1.4199999999999953e-08,3269.0341865701303,-923573620974.9767,314.6336857327101,3347015462308874.0
1.4299999999999953e-08,3364.119269370519,-960492472924.6804,314.99300288235,3426719635843109.5
1.4399999999999952e-08,3463.112364956722,-999632490863.9952,315.3599556001764,3509914647030973.5
1.4499999999999951e-08,3566.254156798694,-1041164814532.7064,315.73467129645695,3596823233170671.5
1.459999999999995e-08,3673.80424627723,-1085276185490.9249,316.1172786068585,3687684986800614.0
1.469999999999995e-08,3786.042909052115,-1132170570584.713,316.50790738155445,3782757808412716.0
1.4799999999999949e-08,3903.273037204343,-1182070973057.9534,316.90668867362604,3882319497663605.5
1.4899999999999948e-08,4025.82228894509,-1235221454948.2947,317.3137547267472,3986669497412950.0
1.499999999999995e-08,4154.045470466801,-1291889397605.687,317.7292389621439,4096130806505188.5
1.509999999999995e-08,4288.327177675903,-1352368030833.3855,318.15327596481666,4211052078984091.0
1.519999999999995e-08,4429.084729147929,-1416979265343.8906,318.58600146901927,4331809929411950.0
1.5299999999999952e-08,4576.771425748331,-1486076868026.6592,319.0275523429818,4458811466182457.0
1.5399999999999953e-08,4731.880177039998,-1560050025035.317,319.4780665728704,4592497077197883.0
1.5499999999999954e-08,4894.947539936996,-1639327344028.4646,319.9376832459748,4733343495059875.0
1.5599999999999954e-08,5066.558221162364,-1724381354166.9724,320.4065425331146,4881867172036439.0
1.5699999999999955e-08,5247.3501020402,-1815733570830.0693,320.8847856702556,5038627998557558.0
1.5799999999999956e-08,5438.019852131668,-1913960201633.6853,321.3725549393292,5204233402906141.0
1.5899999999999957e-08,5639.329207364497,-2019698581418.3284,321.8699936482453,5379342874163495.0
1.5999999999999958e-08,5852.111998784582,-2133654436653.0793,322.3772461100928,5564672955400428.0
1.609999999999996e-08,6077.282030083573,-2256610094449.343,322.8944576215189,5761002759645445.0
1.619999999999996e-08,6315.84191586867,-2389433768410.4907,323.4217744402807,5969180067388812.0
1.629999999999996e-08,6568.893008520347,-2533090073232.8267,323.9593437619627,6190128071384155.0
1.639999999999996e-08,6837.646559756394,-2688651942752.628,324.50731369585264,6424852842388649.0
1.6499999999999962e-08,7123.436284066482,-2857314152511.831,325.06583323997074,6674451598352709.0
1.6599999999999963e-08,7427.7325154432265,-3040408678484.6978,325.63505225524534,6940121869560317.0
1.6699999999999964e-08,7752.1581768304,-3239422159066.9956,326.2151214388304,7223171663478552.0
1.6799999999999965e-08,8098.506814040118,-3456015768593.104,326.8061922965587,7525030745767004.0
1.6899999999999966e-08,8468.762983263949,-3692047858474.624,327.40841711452686,7847263168214007.0
1.6999999999999967e-08,8865.125324543262,-3949599777670.809,328.0219489298066,8191581190523120.0
1.7099999999999968e-08,9290.032703637627,-4231005348928.98,328.64694150027935,8559860761115132.0
1.719999999999997e-08,9746.193862768481,-4538884552627.407,329.28354927358913,8954158742717138.0
1.729999999999997e-08,10236.62108804527,-4876182057942.823,329.9319273552117,9376732091798210.0
1.739999999999997e-08,10764.668479559665,-5246211343605.692,330.5922314756357,9830059227242244.0
1.749999999999997e-08,11334.075500988016,-5652705270236.886,331.2646179566541,1.0316863853433752e+16
1.7599999999999972e-08,11949.016591220914,-6099874106173.825,331.9492436767634,1.0840141536639952e+16
1.7699999999999973e-08,12614.157743567235,-6592472172326.329,332.6462660356691,1.1403189371736056e+16
1.7799999999999974e-08,13334.721101430634,-7135874463121.794,333.3558429178954,1.2009639119547572e+16
1.7899999999999975e-08,14116.558786529456,-7736164824938.13,334.0781326554995,1.2663494244066802e+16
1.7999999999999976e-08,14966.237370851255,-8400237536403.656,334.8132939898885,1.3369171334329932e+16
1.8099999999999977e-08,15891.134631465306,-9135914443463.396,335.56148603274056,1.4131546458716634e+16
1.8199999999999978e-08,16899.55049380142,-9952080164327.857,336.3228682260289,1.4956007070883404e+16
1.829999999999998e-08,18000.834380820488,-10858838304998.393,337.0976003011517,1.5848510167636114e+16
1.839999999999998e-08,19205.531550663058,-11867692126456.662,337.8858422371669,1.6815647491124124e+16
1.849999999999998e-08,20525.55143334056,-12991753693395.518,338.68775421813615,1.7864718672323638e+16
1.859999999999998e-08,21974.36147903928,-14245986227668.467,339.5034965895782,1.900381333161362e+16
1.8699999999999982e-08,23567.210619913018,-15647485206573.553,340.33322981403626,2.0241903287323304e+16
1.8799999999999983e-08,25321.38713957147,-17215804709385.701,341.1771144257611,2.158894617671648e+16
1.8899999999999984e-08,27256.516558470383,-18973336652208.26,342.0353109845152,2.3056001968569412e+16
1.8999999999999985e-08,29394.906101189903,-20945751893331.18,342.90798002850113,2.465536404525885e+16
1.9099999999999986e-08,31761.943439396116,-23162513777046.54,343.7952820264199,2.640070675848963e+16
1.9199999999999987e-08,34386.55873328769,-25657476558723.9,344.6973773286639,2.8307251620324852e+16
1.9299999999999988e-08,37301.76056157305,-28469583372003.234,345.6144261176508,3.0391954584454772e+16
1.939999999999999e-08,40545.2581795374,-31643681024663.03,346.5465883573052,3.267371720670289e+16
1.949999999999999e-08,44160.18472892308,-35231472019882.586,347.49402374169387,3.5173624854388424e+16
1.959999999999999e-08,48195.93860449945,-39292627885793.98,348.45689164282345,3.79152155679391e+16
1.969999999999999e-08,52709.163234567844,-43896092267611.086,349.43535105760753,4.092478367261071e+16
1.9799999999999992e-08,57764.889144659806,-49121607423510.81,350.42956055401254,4.42317228019336e+16
1.9899999999999993e-08,63437.86645073493,-55061503923298.55,351.43967821639137,4.786891363741195e+16
1.9999999999999994e-08,69814.12099593309,-61822800663334.76,352.465861590014,5.187316240229499e+16
2.0099999999999995e-08,76992.77335329149,-69529671003905.81,353.50826762480625,5.628569698377312e+16
2.0199999999999996e-08,85088.16704469209,-78326341170965.61,354.56705261830655,6.11527285124077e+16
2.0299999999999996e-08,94232.36078722971,-88380499359351.62,355.64237215785334,6.652608731675979e+16
2.0399999999999997e-08,104578.04962725024,-99887308607318.95,356.7343810620135,7.246394341420195e+16
2.0499999999999998e-08,116301.99176422694,-113074133934553.38,357.84323332126587,7.903162311767325e+16
