t(s),Adsorbed H on surface 1 (H m-2),solute flux surface 1 (H m-2 s-1),Total T surface 1 (K),0 value at [0] (H m-3)
1e-06,538144212.0946141,-33763622396861.18,300.30895318762066,2055080971798782.8
2.05e-06,1702469077.9175138,-377165811786361.8,300.79481276348605,4182093225529107.0
3.1525e-06,3444397678.338772,-721184241503969.6,301.43125925385755,5862532838406643.0
4.310125e-06,5853999490.164631,-1088687949679067.6,302.2089341469295,7571920677063551.0
5.52563125e-06,9076449269.590166,-1503215472954676.2,303.12469135424516,9422833431167360.0
6.8019128125e-06,13323411978.049742,-1991481974336886.5,304.1784240744657,1.1517687872532598e+16
8.142008453125e-06,18896115893.76989,-2587037207257185.0,305.37176481813924,1.39705709191319e+16
9.54910887578125e-06,26221769343.742355,-3334730031522583.0,306.70743860491433,1.6921189433285324e+16
1.1026564319570314e-05,35909538226.85338,-4296851737804972.0,308.18889480016315,2.055045594400135e+16
1.2577892535548829e-05,48836441415.28242,-5562144792620729.0,309.820074038878,2.5100567549663924e+16
1.4206787162326272e-05,66280029299.77136,-7259449807055532.0,311.6052465097679,3.090275617637507e+16
1.5917126520442588e-05,90125334420.75237,-9578778293323642.0,313.5488901472959,3.841699777465454e+16
1.771298284646472e-05,123191202471.09134,-1.2804298140683602e+16,315.6555919299103,4.828989922236141e+16
1.9598631988787957e-05,169750655524.95642,-1.7366548833278412e+16,317.92996277779184,6.14400686176803e+16
2.1578563588227356e-05,236369924574.82693,-2.392592759745733e+16,320.37656048124455,7.918509311806904e+16
2.3657491767638723e-05,333276034752.6429,-3.350740777021991e+16,322.9998173860214,1.0343172251032925e+17
2.584036635602066e-05,476609255690.00916,-4.77197881609647e+16,325.8039710023104,1.3696243759895611e+17
2.8132384673821694e-05,692169878402.0245,-6.91153211580079e+16,328.7929966708408,1.838695306323563e+17
3.053900390751278e-05,1021708913888.4194,-1.0178381008058803e+17,331.97054210163265,2.5021564318834394e+17
3.306595410288842e-05,1533581244484.1086,-1.5234027029846378e+17,335.3398640944102,3.450427982506406e+17
3.571925180803284e-05,2340928412868.504,-2.315758751062718e+17,338.9037681048319,4.819186163425608e+17
3.850521439843448e-05,3632930675845.2266,-3.572301980749589e+17,342.66455156680234,6.813112504815895e+17
4.143047511835621e-05,5728849400817.472,-5.586629018721214e+17,346.6239520373284,9.742426939201336e+17
4.4501998874274025e-05,9171956818317.986,-8.84746062061464e+17,350.783101314808,1.4079120316424028e+18
4.772709881798773e-05,14893456498659.162,-1.4172160029624842e+18,355.14248670611744,2.0543479596229135e+18
5.111345375888712e-05,24499395424724.133,-2.2932660195698204e+18,359.7019205985866,3.023704235664743e+18
5.4669126446831475e-05,40773550835539.14,-3.7436788794656666e+18,364.4605194393289,4.4845824828391916e+18
5.8402582769173055e-05,68560065756490.91,-6.157276577452514e+18,369.4166931432927,6.695220923681894e+18
6.232271190763171e-05,116310064182716.19,-1.0188855491808911e+19,374.56814585026126,1.0050569123266736e+19
6.64388475030133e-05,198785662674597.25,-1.6939262745151996e+19,379.91188882574835,1.5153208820977158e+19
7.076078987816397e-05,341765092223643.25,-2.825247304090655e+19,385.4442661536278,2.291846122626312e+19
7.529882937207217e-05,590166330931085.4,-4.7197919699197215e+19,391.16099368981156,3.472669123212774e+19
8.006377084067578e-05,1021896561051424.1,-7.883316650340472e+19,397.05721153440766,5.263526090899874e+19
8.506695938270958e-05,1770975275923870.5,-1.3135536840710123e+20,403.1275500259047,7.965128100209826e+19
9.032030735184505e-05,3064800193320089.5,-2.176943165484812e+20,409.3662089618892,1.2002590181062962e+20
9.583632271943731e-05,5280642069813468.0,-3.573399810284507e+20,415.76704940813295,1.79428069519266e+20
0.00010162813885540918,9022550651409386.0,-5.77521919407315e+20,422.3236970705016,2.6466638082114083e+20
0.00010770954579817965,1.520758786238668e+16,-9.117974233854015e+20,429.0296557837797,3.8246172818681804e+20
0.00011409502308808864,2.5131749963087708e+16,-1.393913753634243e+21,435.8784292313316,5.370953032399675e+20
0.00012079977424249307,4.048321980969413e+16,-2.0481697344998044e+21,442.86364856659327,7.280787032130495e+20
0.00012783976295461773,6.331259617353782e+16,-2.8836751966273347e+21,449.979203188847,9.502554598826808e+20
0.00013523175110234862,9.602892429491816e+16,-3.899612261601904e+21,457.2193715547017,1.1971950897392357e+21
0.00014299333865746606,1.41484049782832e+17,-5.097346460353933e+21,464.5789486216658,1.4650938679710114e+21
0.00015114300559033938,2.031329254491529e+17,-6.487983348895144e+21,472.0533663402662,1.7539511575935829e+21
0.00015970015586985636,2.8521243147127552e+17,-8.091501519055452e+21,479.63880357805016,2.0662170512155274e+21
0.0001686851636633492,3.929040447065578e+17,-9.932884513721458e+21,487.3322819828964,2.405138725640315e+21
0.00017811942184651667,5.3247673368325946e+17,-1.2040092248942834e+22,495.1317446024112,2.7739330238003146e+21
0.00018802539293884252,7.114052957712233e+17,-1.4443939982195175e+22,503.03611456559145,3.1755138643749115e+21
0.00019802539293884252,9.282792977416588e+17,-1.7076282380081204e+22,510.7453015396977,3.5967703210183853e+21
0.00020802539293884252,1.184407089059703e+18,-1.9915691390456247e+22,518.2039046405591,4.033092864972831e+21
0.00021802539293884252,1.4823918684531146e+18,-2.2958716692969726e+22,525.4304011080707,4.482992652906477e+21
0.00022802539293884251,1.8243553572843745e+18,-2.6200145766956575e+22,532.4418385451036,4.945391592696433e+21
0.00023802539293884251,2.2119107733204918e+18,-2.9633245675098158e+22,539.2538450902208,5.4202297802774e+21
0.0002480253929388425,2.6461899562156283e+18,-3.32502041809624e+22,545.8806953558689,5.909026819769308e+21
0.00025802539293884254,3.1267291201315005e+18,-3.695352256263578e+22,552.2602266389081,6.402734720456861e+21
0.00026802539293884257,3.653116919894399e+18,-4.075892134307936e+22,558.4333363570521,6.911314772535037e+21
0.0002780253929388426,4.225098653108004e+18,-4.468270706756846e+22,564.4337229092928,7.446527677758149e+21
0.0002880253929388426,4.84245863188852e+18,-4.872635048675702e+22,570.2799584801651,8.020239972596154e+21
0.00029802539293884264,5.505025163801949e+18,-5.2887650172137835e+22,575.9857323990699,8.646494121489456e+21
0.00030802539293884267,6.212675270042889e+18,-5.716279460607911e+22,581.5620345929744,9.34250953357251e+21
0.0003180253929388427,6.965322910701337e+18,-6.154686528884661e+22,587.0180637495274,1.0129950033805645e+22
0.0003280253929388427,7.762888955639612e+18,-6.6033821738395605e+22,592.3617146157087,1.1036866554728802e+22
0.00033802539293884275,8.605253157757758e+18,-7.06162101828848e+22,597.5998792180792,1.2100774319195328e+22
0.0003480253929388428,9.492185512831123e+18,-7.528460388498343e+22,602.7386503061582,1.3373629414855095e+22
0.0003580253929388428,1.0423247551611847e+19,-8.002662485348035e+22,607.7834670900285,1.4930133907567809e+22
0.00036802539293884283,1.1397640874340385e+19,-8.482517795374935e+22,612.7392240293385,1.6882207122529077e+22
0.00037802539293884285,1.2413951294633503e+19,-8.965508843145244e+22,617.6103545462139,1.9405592854632413e+22
0.0003880253929388429,1.3469661027981918e+19,-9.447629824196573e+22,622.4008969802229,2.2792010734654254e+22
0.0003980253929388429,1.4560059488083399e+19,-9.92191315894938e+22,627.1145475559365,2.7559148650991897e+22
0.00040802539293884293,1.5675191954643075e+19,-1.037503150390178e+23,631.7547036063943,3.4699881652450924e+22
0.00041802539293884296,1.6787219640346135e+19,-1.0779952088279813e+23,636.3244993310526,4.6229362466951975e+22
0.000428025392938843,1.776325401162497e+19,-1.1106683860509909e+23,640.8268357295977,6.478291907940734e+22
0.000438025392938843,1.8248185652029737e+19,-1.1495064827962554e+23,645.2644059212155,8.32164466204238e+22
0.00044754920246265254,1.8361066039057494e+19,-1.2031891417960985e+23,649.4339368842546,9.321177274727497e+22
0.00045754920246265257,1.8367820043885203e+19,-1.2678928354551157e+23,653.7520876905413,9.825789260920522e+22
0.0004675492024626526,1.834884564737584e+19,-1.3341346944007575e+23,658.0124068520086,1.0075713233886804e+23
0.0004775492024626526,1.832306060249632e+19,-1.3997519189977892e+23,662.216951474099,1.0200457961879551e+23
0.00048754920246265264,1.8294720277792895e+19,-1.464355167622731e+23,666.36765196464,1.0256976862665293e+23
0.0004975492024626527,1.8265009312475707e+19,-1.5280546137985728e+23,670.466323948634,1.0272561255596762e+23
0.0005075492024626527,1.8234363861563748e+19,-1.5910501934134085e+23,674.5146779830601,1.026154575288078e+23
0.0005175492024626527,1.8202982353026198e+19,-1.6535187998831696e+23,678.514328163586,1.0232112893860782e+23
0.0005275492024626527,1.8170964897545816e+19,-1.7155934430617703e+23,682.4667998080532,1.0189276526345179e+23
0.0005375492024626528,1.8138362437609318e+19,-1.777367602868888e+23,686.373536342716,1.0136290065773288e+23
0.0005475492024626528,1.8105198017488607e+19,-1.838904321903441e+23,690.235905494006,1.007536161483122e+23
0.0005575492024626528,1.8071477314702481e+19,-1.9002444587565053e+23,694.0552048730584,1.0008043157283304e+23
0.0005675492024626529,1.8037194328057e+19,-1.961413050525172e+23,697.8326670263374,9.935455852682272e+22
0.0005775492024626529,1.8002334632447592e+19,-2.0224239583847242e+23,701.5694640157424,9.858427454084233e+22
0.0005875492024626529,1.796687730929374e+19,-2.0832831981890595e+23,705.2667115821743,9.77757982672494e+22
0.0005975492024626529,1.7930796107373423e+19,-2.1439913189815886e+23,708.9254729393739,9.693386704049254e+22
0.000607549202462653,1.789406012984893e+19,-2.204545104644451e+23,712.5467622382026,9.60621293942998e+22
0.000617549202462653,1.7856634213122808e+19,-2.2649387956843324e+23,716.1315477369174,9.516341841844245e+22
0.000627549202462653,1.7818479093670162e+19,-2.325164969376973e+23,719.6807547076212,9.423994603138843e+22
0.000637549202462653,1.7779551419879213e+19,-2.3852151750052378e+23,723.1952681063997,9.329344337451999e+22
0.0006475492024626531,1.773980364284663e+19,-2.4450803920830355e+23,726.6759350299111,9.232526364525513e+22
0.0006575492024626531,1.769918380578424e+19,-2.504751359718017e+23,730.1235669802064,9.133645821163162e+22
0.0006675492024626531,1.7657635242399222e+19,-2.5642188114741847e+23,733.5389419554458,9.03278333769263e+22
0.0006775492024626531,1.761509618818125e+19,-2.623473640610945e+23,736.9228063832242,8.929999290887374e+22
0.0006875492024626532,1.7571499303758348e+19,-2.682507013832055e+23,740.2758769106741,8.82533699469438e+22
0.0006975492024626532,1.7526771105623048e+19,-2.7413104469527935e+23,743.5988420646688,8.718825088343594e+22
0.0007075492024626532,1.7480831296125782e+19,-2.7998758524263937e+23,746.8923637932884,8.610479310787003e+22
0.0007175492024626532,1.743359198136187e+19,-2.858195566219362e+23,750.1570788992968,8.500303800900877e+22
0.0007275492024626533,1.7384956762230581e+19,-2.916262359625918e+23,753.3936003742604,8.388292027380497e+22
0.0007375492024626533,1.7334819680333652e+19,-2.9740694403083806e+23,756.6025186423198,8.274427427035312e+22
0.0007475492024626533,1.7283063996382915e+19,-3.031610445749866e+23,759.7844027208032,8.158683811866459e+22
0.0007575492024626534,1.7229560774276487e+19,-3.0888794315113313e+23,762.9398013043228,8.04102559255703e+22
0.0007675492024626534,1.7174167238891663e+19,-3.145870856073759e+23,766.069243778667,7.921407857548194e+22
0.0007775492024626534,1.7116724869882698e+19,-3.2025795635280686e+23,769.1732411699912,7.799776342017624e+22
0.0007875492024626534,1.7057057187375387e+19,-3.259000764967046e+23,772.2522870344321,7.676067319716644e+22
0.0007975492024626535,1.6994967178556484e+19,-3.315130019048548e+23,775.3068582923826,7.550207452805996e+22
0.0008075492024626535,1.693023430709342e+19,-3.370963211912826e+23,778.3374160119627,7.422113641270187e+22
0.0008175492024626535,1.6862611040786307e+19,-3.4264965362772255e+23,781.3444061452883,7.291692924907289e+22
0.0008275492024626535,1.6791818828101573e+19,-3.481726469186919e+23,784.3282602208985,7.158842509015155e+22
0.0008375492024626536,1.6717543453461815e+19,-3.536649747520635e+23,787.289395995808,7.023450011846433e+22
0.0008475492024626536,1.6639429708072206e+19,-3.5912633398174544e+23,790.2282180697994,6.885394070545486e+22
0.0008575492024626536,1.6557075333682805e+19,-3.6455644123720234e+23,793.1451184644794,6.744545496664424e+22
0.0008675492024626536,1.6470024240643363e+19,-3.69955028678828e+23,796.0404771700919,6.600769247175418e+22
0.0008775492024626537,1.6377767284642243e+19,-3.753218190650158e+23,798.9146626617559,6.453936919811769e+22
0.0008875492024626537,1.6279704727363133e+19,-3.8065659489363414e+23,801.7680323873473,6.303898856880401e+22
0.0008975492024626537,1.6175176946805408e+19,-3.859590813535365e+23,804.6009332290281,6.150530721648171e+22
0.0009075492024626537,1.6063437834619335e+19,-3.912289916123759e+23,807.4137019400679,5.993727682296635e+22
0.0009175492024626538,1.5943652113059125e+19,-3.9646600730431224e+23,810.2066655586218,5.83341778522387e+22
0.0009275492024626538,1.5814895686068283e+19,-4.016697528875937e+23,812.9801417997195,5.669582709867302e+22
0.0009375492024626538,1.567616333906601e+19,-4.068397683289678e+23,815.7344394272445,5.502284263839351e+22
0.0009475492024626539,1.5526388522566492e+19,-4.119754782125406e+23,818.469858606846,5.331697591216515e+22
0.0009575492024626539,1.5364480856612583e+19,-4.170761595081289e+23,821.1866912410287,5.158150587441205e+22
0.0009675492024626539,1.5189387272662036e+19,-4.221409138843228e+23,823.885221287593,4.9821667182848535e+22
0.000977549202462654,1.5000181188975985e+19,-4.271686546555883e+23,826.5657250623749,4.8045050820527785e+22
0.000987549202462654,1.4796179443844889e+19,-4.321581222303893e+23,829.2284715271848,4.626187547016874e+22
0.000997549202462654,1.4577078039375806e+19,-4.3710794259104434e+23,831.8737225639894,4.4484996235904026e+22
0.001007549202462654,1.4343086074802246e+19,-4.4201673722936343e+23,834.501733235869,4.2729519680177295e+22
0.001017549202462654,1.4095026685421986e+19,-4.468832779613766e+23,837.1127520358117,4.101195665513221e+22
0.001027549202462654,1.3834371061241663e+19,-4.5170665925899397e+23,839.7070211237749,3.934897036318351e+22
0.001037549202462654,1.3563182315936467e+19,-4.564864441401804e+23,842.2847765529052,3.7755926494716092e+22
0.0010475492024626541,1.3283969331702807e+19,-4.6122273928167376e+23,844.8462484853521,3.6245550798117085e+22
0.0010575492024626541,1.2999477540310888e+19,-4.659161752746466e+23,847.3916613984145,3.4826985204745983e+22
0.0010675492024626542,1.2712461197660262e+19,-4.7056779981585166e+23,849.9212342813418,3.3505407180016064e+22
0.0010775492024626542,1.2425482362880623e+19,-4.751789183049335e+23,852.4351808234763,3.2282204099590585e+22
0.0010875492024626542,1.2140767483909958e+19,-4.7975092560480136e+23,854.933709594212,3.1155557325512383e+22
0.0010975492024626542,1.1860132065424712e+19,-4.8428516440514937e+23,857.4170242149789,3.0121234614016247e+22
0.0011075492024626543,1.1584966440435876e+19,-4.887828284218505e+23,859.8853235239512,2.917340864165844e+22
0.0011175492024626543,1.1316265908109775e+19,-4.932449122143623e+23,862.3388017338049,2.8305378803292226e+22
0.0011275492024626543,1.1054686396472273e+19,-4.9767219901574385e+23,864.7776485825397,2.7510137871209125e+22
0.0011375492024626543,1.0800609706300797e+19,-5.020652741749756e+23,867.2020494783773,2.6780774324257195e+22
0.0011475492024626544,1.0554207303281711e+19,-5.064245525324217e+23,869.6121856383637,2.6110729902459946e+22
0.0011575492024626544,1.031549644315944e+19,-5.1075031088195754e+23,872.0082342213755,2.549394366993586e+22
0.0011675492024626544,1.0084386125899526e+19,-5.150427198424401e+23,874.3903684558754,2.4924914710070054e+22
0.0011775492024626545,9.860712766638178e+18,-5.1930187209407497e+23,876.7587577622312,2.439871097941318e+22
0.0011875492024626545,9.64426674708258e+18,-5.2352780578605015e+23,879.113567870408,2.3910945479917362e+22
0.0011975492024626545,9.434811507134378e+18,-5.277205230332781e+23,881.4549609329274,2.345773477813002e+22
0.0012075492024626545,9.23209686670748e+18,-5.318800040014582e+23,883.7830956333274,2.3035649855077854e+22
0.0012175492024626546,9.035868065973307e+18,-5.3600621730855824e+23,886.0981272904888,2.2641665495398888e+22
0.0012275492024626546,8.845871728272755e+18,-5.4009912749510296e+23,888.4002079589567,2.227311178680457e+22
0.0012375492024626546,8.661859666637051e+18,-5.4415870024128176e+23,890.6894865253728,2.1927629560459456e+22
0.0012475492024626546,8.483591210300966e+18,-5.481849058977869e+23,892.9661088012945,2.1603130514755836e+22
0.0012575492024626547,8.310834533277431e+18,-5.521777217795562e+23,895.2302176125157,2.1297762123981735e+22
0.0012675492024626547,8.143367320851647e+18,-5.56137133567709e+23,897.4819528850638,2.100987708436058e+22
0.0012775492024626547,7.980977003975857e+18,-5.6006313607886484e+23,899.7214517280913,2.0738006882919847e+22
0.0012875492024626547,7.823460716987912e+18,-5.639557335901666e+23,901.948848513536,2.0480839015652013e+22
0.0012975492024626548,7.670625082612523e+18,-5.678149398623642e+23,904.1642749532183,2.02371973831564e+22
0.0013075492024626548,7.522285893232326e+18,-5.7164077795485895e+23,906.3678601728001,2.0006025424242148e+22
0.0013175492024626548,7.378267733849682e+18,-5.7543327990861345e+23,908.5597307833934,1.978637159425082e+22
0.0013275492024626548,7.238403576430469e+18,-5.7919248634277826e+23,910.7400109504007,1.9577376844114387e+22
0.0013375492024626549,7.102534364827897e+18,-5.8291844600394154e+23,912.9088224601956,1.937826380411905e+22
0.001347549202462655,6.97050860253594e+18,-5.8661121528802325e+23,915.0662847841916,1.918832741963168e+22
0.001357549202462655,6.842181950893262e+18,-5.9027085775548185e+23,917.2125151409043,1.9006926824565962e+22
0.001367549202462655,6.717416842308762e+18,-5.938974436490497e+23,919.3476285558331,1.8833478271278309e+22
0.001377549202462655,6.596082111060048e+18,-5.974910494211097e+23,921.4717379192015,1.8667448963803046e+22
0.001387549202462655,6.478052642882664e+18,-6.010517572779954e+23,923.5849540419616,1.850835166520932e+22
0.001397549202462655,6.363209043712828e+18,-6.04579654739881e+23,925.687385709596,1.8355739969734528e+22
0.001407549202462655,6.251437327375883e+18,-6.08074834223675e+23,927.7791397345397,1.8209204147382343e+22
0.001417549202462655,6.142628621682115e+18,-6.115373926428754e+23,929.8603210064306,1.8068367482469625e+22
0.0014275492024626551,6.036678892163942e+18,-6.149674310312143e+23,931.9310325411186,1.7932883039714231e+22
0.0014375492024626551,5.93348868258875e+18,-6.1836505418424e+23,933.9913755277927,1.780243080107865e+22
0.0014475492024626552,5.832962871317582e+18,-6.217303703213099e+23,936.0414493746732,1.7676715125093513e+22
0.0014575492024626552,5.735010442569868e+18,-6.250634907667562e+23,938.0813517532681,1.7555462487297038e+22
0.0014675492024626552,5.63954427166814e+18,-6.28364529649324e+23,940.1111786412363,1.7438419466333589e+22
0.0014775492024626552,5.546480923368581e+18,-6.316336036178528e+23,942.1310243637631,1.7325350945215048e+22
0.0014875492024626553,5.455740462417558e+18,-6.348708315750306e+23,944.1409816338419,1.7216038501542686e+22
0.0014975492024626553,5.367246275527598e+18,-6.380763344252195e+23,946.1411415911076,1.7110278963946987e+22
0.0015075492024626553,5.280924904007716e+18,-6.412502348380356e+23,948.1315938395879,1.7007883115163015e+22
0.0015175492024626553,5.196705886335406e+18,-6.443926570253547e+23,950.1124264842164,1.6908674524671046e+22
0.0015275492024626554,5.114521610002631e+18,-6.475037265322391e+23,952.0837261663083,1.6812488496107045e+22
0.0015375492024626554,5.034307172016466e+18,-6.505835700397967e+23,954.045578097873,1.6719171116497807e+22
0.0015475492024626554,4.956000247475985e+18,-6.536323151806132e+23,955.9980660949644,1.6628578396058734e+22
0.0015575492024626555,4.879540965689652e+18,-6.566500903656854e+23,957.941272610049,1.6540575488661227e+22
0.0015675492024626555,4.804871793337667e+18,-6.596370246210564e+23,959.8752787632659,1.6455035984276403e+22
