t(s),Adsorbed H on surface 1 (H m-2),solute flux surface 1 (H m-2 s-1),Total T surface 1 (K),0 value at [0] (H m-3)
1e-10,213.0039787583665,-71693046635.78827,300.06377672156765,8185786793402.719
2e-10,633.102555853131,-154361123399.89767,300.097947041395,16130262643917.844
3e-10,1254.2084643069425,-247394132690.94977,300.12537157730185,23831368169861.88
4e-10,2070.3864944064726,-350345147998.3443,300.1497890417214,31296444596157.98
5e-10,3075.9014981659966,-462797508138.6441,300.17258248914794,38533961257193.19
6e-10,4265.23558764813,-584357734832.5151,300.1944378028378,45552739330883.02
7e-10,5633.093530729156,-714652702987.8407,300.2157543136924,52361637501068.14
7.999999999999999e-10,7174.40263124592,-853328084560.2256,300.23679007442837,58969402920931.86
8.999999999999999e-10,8884.30974705165,-1000047286975.7744,300.2577248331043,65384594453296.91
9.999999999999999e-10,10758.176741818312,-1154490620083.1504,300.27869123703294,71615541888281.53
1.1e-09,12791.575068876562,-1316354584978.277,300.29979184480095,77670324752848.1
1.2e-09,14980.279890802303,-1485351236939.637,300.3211090937058,83556762498902.62
1.3e-09,17320.263980504384,-1661207599225.5962,300.342711478772,89282411614117.58
1.4000000000000001e-09,19807.691559198174,-1843665115617.3271,300.3646575617151,94854567084438.83
1.5000000000000002e-09,22438.912172219763,-2032479134993.8628,300.386998671706,100280266650150.4
1.6000000000000003e-09,25210.4546694642,-2227418423988.517,300.40978078344807,105566296873102.3
1.7000000000000003e-09,28119.02133504195,-2428264705250.3516,300.43304585915877,110719200375501.6
1.8000000000000004e-09,31161.482195936715,-2634812219649.417,300.4568328304427,115745283822911.81
1.9000000000000005e-09,34334.86952933892,-2846867311230.478,300.48117833184625,120650626359959.89
2.0000000000000005e-09,37636.372581306015,-3064248033994.533,300.5061172592183,125441088296731.25
2.1000000000000006e-09,41063.33250445604,-3286783779755.902,300.5316832019586,130122319904252.39
2.2000000000000007e-09,44613.23751888649,-3514314926429.9204,300.5579087828495,134699770219130.97
2.3000000000000007e-09,48283.718298001106,-3746692506179.4326,300.58482592908126,139178695786720.16
2.400000000000001e-09,52072.54357913563,-3983777892900.844,300.61246609131206,143564169293101.38
2.500000000000001e-09,55977.61599760273,-4225442508572.161,300.6408604229767,147861088051346.88
2.600000000000001e-09,59996.96814188863,-4471567548020.303,300.67003992883156,152074182318654.97
2.700000000000001e-09,64128.75882713217,-4722043721696.776,300.7000355894404,156208023429206.25
2.800000000000001e-09,68371.26958362943,-4976771016080.584,300.73087846666283,160267031733770.44
2.900000000000001e-09,72722.90135688432,-5235658471356.913,300.76259979401306,164255484341760.53
3.0000000000000012e-09,77182.17141562773,-5498623976049.192,300.7952310548707,168177522664974.88
3.1000000000000013e-09,81747.71046422826,-5765594078312.458,300.82880405087025,172037159764980.22
3.2000000000000014e-09,86418.25995599503,-6036503813625.8125,300.863350962294,175838287508171.78
3.3000000000000014e-09,91192.66960401068,-6311296548653.641,300.8989044019191,179584683534155.28
3.4000000000000015e-09,96069.89508631988,-6589923841076.771,300.93549746347287,183280018044343.53
3.5000000000000016e-09,101048.99594252509,-6872345315228.336,300.9731637656292,186927860418634.0
3.6000000000000016e-09,106129.13365910086,-7158528553402.766,301.01193749229674,190531685668795.62
3.7000000000000017e-09,111309.56994102552,-7448449002741.814,301.05185342981537,194094880737799.28
3.800000000000002e-09,116589.66516763992,-7742089897637.618,301.09294700156187,197620750654806.94
3.900000000000002e-09,121968.87703097539,-8039442197630.473,301.1352543003803,201112524555928.6
4.000000000000002e-09,127446.75935514506,-8340504540817.987,301.17881211918046,204573361581182.5
4.100000000000002e-09,133022.96109576165,-8645283212832.633,301.22365797998896,208006356658373.66
4.200000000000002e-09,138697.22551873262,-8953792131486.791,301.2698301616934,211414546184854.44
4.300000000000002e-09,144469.3895581871,-9266052847228.16,301.31736772667784,214800913618360.3
4.400000000000002e-09,150339.38335371087,-9582094559594.104,301.36631054651957,218168394988335.3
4.500000000000002e-09,156307.2299675053,-9901954149901.674,301.4166993268893,221519884339385.38
4.600000000000002e-09,162373.04528254404,-10225676230459.736,301.46857563177514,224858239118728.25
4.700000000000002e-09,168537.0380832803,-10553313210642.895,301.52198190713364,228186285519754.34
4.8000000000000024e-09,174799.51032095632,-10884925380222.5,301.57696150405457,231506823794081.97
4.9000000000000025e-09,181160.85756609106,-11220581010408.23,301.6335587015144,234822633544783.0
5.0000000000000026e-09,187621.5696512689,-11560356473116.92,301.6918187287826,238136479013782.9
5.100000000000003e-09,194182.2315079288,-11904336379049.988,301.75178778753394,241451114376799.5
5.200000000000003e-09,200843.52420145852,-12252613735232.11,301.8135130737152,244769289059591.4
5.300000000000003e-09,207606.22616953636,-12605290122737.455,301.8770427992048,248093753089735.12
5.400000000000003e-09,214471.2146693378,-12962475895410.107,301.94242621330005,251427262498652.4
5.500000000000003e-09,221439.46743993682,-13324290400469.803,302.00971362406153,254772584789167.28
5.600000000000003e-09,228512.0645869888,-13690862221985.846,302.0789564195385,258132504484488.7
5.700000000000003e-09,235690.19069758378,-14062329448299.223,302.150207088897,261509828775202.0
5.800000000000003e-09,242975.1371940154,-14438839964578.36,302.2235192434685,264907393281608.78
5.900000000000003e-09,250368.3049361204,-14820551771806.758,302.2989476377334,268328067949591.56
6.000000000000003e-09,257871.20708281753,-15207633333622.463,302.37654819025215,271774763099101.62
6.100000000000003e-09,265485.472224515,-15600263952560.58,302.4563780045537,275250435645383.28
6.200000000000003e-09,273212.84779917076,-15998634177392.217,302.53849538998975,278758095514161.97
6.3000000000000035e-09,281055.20380598557,-16402946243406.4,302.6229598825608,282300812273250.8
6.4000000000000035e-09,289014.5368319939,-16813414547647.729,302.7098322657183,285881722004369.9
6.500000000000004e-09,297092.97440820065,-17230266161303.268,302.79917459114733,289504034440449.75
6.600000000000004e-09,305292.77971340006,-17653741381626.816,302.8910501995298,293171040395298.6
6.700000000000004e-09,313616.35664542,-18084094326002.742,302.98552374129133,296886119514282.5
6.800000000000004e-09,322066.2552812689,-18521593570980.977,303.08266119732934,300652748376596.44
6.900000000000004e-09,330645.17774953775,-18966522839368.336,303.18252989972234,304474508981819.3
7.000000000000004e-09,339355.9845404383,-19419181738734.11,303.28519855241746,308355097655754.9
7.100000000000004e-09,348201.70128105744,-19879886554988.633,303.39073725189394,312298334413088.5
7.200000000000004e-09,357185.5260057911,-20348971105019.113,303.4992175077981,316308172817149.3
7.300000000000004e-09,366310.8369545082,-20826787652724.742,303.61071226354534,320388710380088.5
7.400000000000004e-09,375581.2009338073,-21313707893183.906,303.72529591688453,324544199550082.7
7.500000000000004e-09,385000.38227978465,-21810124010112.914,303.84304434041775,328779059335781.0
7.600000000000004e-09,394572.3524640608,-22316449812245.727,303.96403490207035,333097887622159.75
7.700000000000003e-09,404301.30038843653,-22833121954776.188,304.0883464855032,337505474236262.94
7.800000000000002e-09,414191.6434175012,-23360601252569.074,304.2160595104602,342006814826028.8
7.900000000000001e-09,424248.0392028283,-23899374092464.992,304.3472559530422,346607125620564.7
8e-09,434475.3983571015,-24449953952684.918,304.4820193659001,351311859145889.94
8.1e-09,444878.8980416598,-25012883038088.133,304.6204348983364,356126720976350.7
8.199999999999999e-09,455463.99653658,-25588734040862.977,304.7625893163073,361057687608695.6
8.299999999999998e-09,466236.4488685722,-26178112037135.805,304.908571022314,366111025553225.56
8.399999999999997e-09,477202.3235787153,-26781656530987.055,305.0584700751741,371293311744574.06
8.499999999999997e-09,488368.0207194528,-27400043658466.605,305.21237820966127,376611455383605.0
8.599999999999996e-09,499740.2911783866,-28033988565422.547,305.3703888560028,382072721331707.2
8.699999999999995e-09,511326.2574353141,-28684247974304.566,305.5325971592229,387684755189521.1
8.799999999999994e-09,523133.4358687415,-29351622956597.773,305.6990999983205,393455610203936.2
8.899999999999994e-09,535169.7607388671,-30036961929191.848,305.8699960052682,399393776160169.8
8.999999999999993e-09,547443.6099858697,-30741163894823.277,306.0453855838211,405508210429997.9
9.099999999999992e-09,559963.8329953728,-31465181948755.785,306.22537092812104,411808371362885.3
9.199999999999991e-09,572739.7804973231,-32210027076117.527,306.41005604108454,418304254224020.25
9.29999999999999e-09,585781.3367803614,-32976772266813.52,306.5995467525588,425006429902248.5
9.39999999999999e-09,599098.9544212455,-33766556977713.25,306.79395073723373,431926086631828.6
9.499999999999989e-09,612703.6917481938,-34580591974904.87,306.9933775322944,439075074994986.94
9.599999999999988e-09,626607.2532783479,-35420164592251.12,307.19793855479975,446465956497677.25
9.699999999999988e-09,640822.0333931572,-36286644446318.74,307.40774711877265,454112056039006.94
9.799999999999987e-09,655361.163541602,-37181489652031.445,307.6229184519858,462027518625762.7
9.899999999999986e-09,670238.5632901042,-38106253588172.01,307.84356971242875,470227370717677.2
9.999999999999985e-09,685468.9955700425,-39062592267192.69,308.06982000443884,478727586626891.7
1.0099999999999985e-08,701068.1265093657,-40052272369758.48,308.3017903944816,487545160436879.94
1.0199999999999984e-08,717052.590274289,-41077180011118.35,308.53960392656296,496698183952366.7
1.0299999999999983e-08,733440.0593909428,-42139330313875.65,308.78338563725754,506205931243002.75
1.0399999999999982e-08,750249.3210656282,-43240877870102.75,309.0332625703356,516088950400300.25
1.0499999999999982e-08,767500.3600766247,-44384128185144.516,309.2893637909719,526369163190244.7
1.059999999999998e-08,785214.448870953,-45571550206004.5,309.55182039951916,537069973353766.5
1.069999999999998e-08,803414.2455668739,-46805790049066.44,309.82076554482796,548216384384690.06
1.079999999999998e-08,822123.9006380528,-48089686055241.08,310.0963344370962,559835127700767.6
1.0899999999999978e-08,841369.173139208,-49426285315642.86,310.37866436022915,571954802218954.8
1.0999999999999978e-08,861177.5574267651,-50818861827819.414,310.6678946836929,584606026452315.8
1.1099999999999977e-08,881578.4214328135,-52270936461640.23,310.96416687384163,597821604364139.6
1.1199999999999976e-08,902603.1576678804,-53786298935486.37,311.2676245047009,611636706346414.1
1.1299999999999975e-08,924285.3482593081,-55369032027724.11,311.57841326818817,626089066836358.6
1.1399999999999975e-08,946660.9454791351,-57023538275961.445,311.8966809837509,641219200248060.4
1.1499999999999974e-08,969768.4693803838,-58754569447741.414,312.22257760740393,657070637078435.4
1.1599999999999973e-08,993649.2243458818,-60567259101617.92,312.556255240146,673690182250025.1
1.1699999999999972e-08,1018347.5365618332,-62467158597582.49,312.89786813573704,691128197980158.4
1.1799999999999972e-08,1043911.0146623243,-64460276961236.984,313.2475727078152,709438913719650.2
1.1899999999999971e-08,1070390.8360542385,-66553125057720.79,313.60552753633567,728680765987799.9
1.199999999999997e-08,1097842.0617285727,-68752764590088.695,313.97189337330985,748916771247702.2
1.209999999999997e-08,1126323.9826983865,-71066862503642.75,314.3468331478259,770214935321027.9
1.2199999999999969e-08,1155900.5015806595,-73503751453833.73,314.73051197033067,792648703239228.6
1.2299999999999968e-08,1186640.5532650508,-76072497082144.66,315.1230971361522,816297453873974.2
1.2399999999999967e-08,1218618.5690936055,-78782972943450.89,315.5247581282438,841247044189657.6
1.2499999999999966e-08,1251914.9895195111,-81645944041555.62,315.93566661912797,867590408521915.0
1.2599999999999966e-08,1286616.8308288187,-84673160059073.25,316.3559964720217,895428218916203.9
1.2699999999999965e-08,1322818.31220669,-87877459516043.36,316.785923741121,924869613268395.8
1.2799999999999964e-08,1360621.5502207286,-91272886261495.12,317.225626671026,956032998805261.1
1.2899999999999963e-08,1400137.3286915773,-94874819896977.3,317.6752856952856,989046939338070.1
1.2999999999999963e-08,1441485.952940431,-98700121954705.47,318.13508343404027,1024051135730368.0
1.3099999999999962e-08,1484798.1985619792,-102767299909992.47,318.60520469074544,1061197510156145.1
1.3199999999999961e-08,1530216.3661897,-107096691403255.55,319.0858364479526,1100651406003921.0
1.329999999999996e-08,1577895.45522165,-111710671387298.78,319.5771678621289,1142592916724901.0
1.339999999999996e-08,1628004.4711857322,-116633885307896.44,320.07939025749556,1187218358551196.2
1.3499999999999959e-08,1680727.8833747953,-121893511878307.44,320.5926971188648,1234741903847904.2
1.3599999999999958e-08,1736267.251609544,-127519559531011.1,321.1172840834543,1285397393939039.2
1.3699999999999957e-08,1794843.043532408,-133545201234103.02,321.6533489316613,1339440352594114.5
1.3799999999999956e-08,1856696.6667459414,-140007153058781.86,322.20109157677456,1397150224016426.2
1.3899999999999956e-08,1922092.743440264,-146946102693904.7,322.76071405360665,1458832862177861.2
1.3999999999999955e-08,1991321.6589694996,-154407195042046.28,323.33242050602496,1524823301746189.0
1.4099999999999954e-08,2064702.420211285,-162440583120474.16,323.91641717336444,1595488844704227.2
1.4199999999999953e-08,2142585.864562241,-171102053755267.0,324.5129123757008,1671232501128398.8
1.4299999999999953e-08,2225358.266185705,-180453739027321.6,325.1221164979674,1752496827548755.8
1.4399999999999952e-08,2313445.3927520006,-190564926140219.56,325.7442419728955,1839768211935132.0
1.4499999999999951e-08,2407317.073530962,-201512980373253.2,326.37950326276064,1933581660738433.8
1.459999999999995e-08,2507492.348468198,-213384398106964.97,327.0281168399165,2034526150669190.8
1.469999999999995e-08,2614545.2779832943,-226276009620830.47,327.6903011660981,2143250616139973.2
1.4799999999999949e-08,2729111.504882623,-240296354531006.22,328.36627667047776,2260470652674616.0
1.4899999999999948e-08,2851895.673229581,-255567256440499.4,329.0562657264556,2386976027256185.0
1.499999999999995e-08,2983679.824550325,-272225627709458.0,329.7604926271678,2523639098731672.0
1.509999999999995e-08,3125332.90971106,-290425540331646.44,330.47918355969665,2671424265226029.0
1.519999999999995e-08,3277821.575578222,-310340604857343.4,331.2125665779656,2831398571283648.5
1.5299999999999952e-08,3442222.409626523,-332166706290259.44,331.9608715743037,3004743625430115.0
1.5399999999999953e-08,3619735.853531167,-356125154093272.5,332.72433024966347,3192768999350133.0
1.5499999999999954e-08,3811702.0291007496,-382466313086366.1,333.5031760824781,3396927303275597.0
1.5599999999999954e-08,4019618.757415582,-411473793373241.6,334.2976442961429,3618831158891536.0
1.5699999999999955e-08,4245162.095598623,-443469290803448.1,335.1079718251064,3860272321580714.0
1.5799999999999956e-08,4490209.766278398,-478818185236522.2,335.9343972795583,4123243238695241.0
1.5899999999999957e-08,4756867.9136966895,-517936022466268.2,336.77716090870047,4409961370404132.0
1.5999999999999958e-08,5047501.688967027,-561296027614289.8,337.6365045625886,4722896645252786.0
1.609999999999996e-08,5364770.246845791,-609437823740559.8,338.5126716525319,5064802474727540.0
1.619999999999996e-08,5711666.8294665525,-662977560094569.9,339.4059071100402,5438750810815797.0
1.629999999999996e-08,6091564.721079955,-722619690737524.8,340.31645734430634,5848171798905293.0
1.639999999999996e-08,6508269.984606395,-789170687271645.1,341.2445701982137,6296898656658206.0
1.6499999999999962e-08,6966082.038889958,-863555020392083.5,342.1904949028598,6789218499204051.0
1.6599999999999963e-08,7469863.308640761,-946833805454285.4,343.154482030585,7329929933817862.0
1.6699999999999964e-08,8025119.381529814,-1040226579047645.1,344.13678344649946,7924408365143582.0
1.6799999999999965e-08,8638091.343895582,-1145136758865295.0,345.13765225849926,8578680087236031.0
1.6899999999999966e-08,9315862.244096035,-1263181440570597.0,346.15734276576484,9299506393819934.0
1.6999999999999967e-08,10066479.957844602,-1396226306008948.5,347.19611040573454,1.0094479116182082e+16
1.7099999999999968e-08,10899099.111342814,-1546426560744585.8,348.2542116995483,1.0972129202456058e+16
1.719999999999997e-08,11824145.165630696,-1716274990005036.8,349.3319041959551,1.1942050186679172e+16
1.729999999999997e-08,12853504.2910877,-1908658426073745.8,350.42944641368035,1.301503866544787e+16
1.739999999999997e-08,14000743.278338203,-2126924163440756.8,351.5470977822504,1.4203254209507682e+16
1.749999999999997e-08,15281364.457383003,-2374958148349743.0,352.68511858126794,1.552040149321468e+16
1.7599999999999972e-08,16713101.450025305,-2657277116066720.5,353.8437698781408,1.6981937833438516e+16
1.7699999999999973e-08,18316262.58457052,-2979137263405862.0,355.02331346425797,1.8605309799128436e+16
1.7799999999999974e-08,20114129.98354425,-3346662539190865.5,356.22401178961644,2.0410223092626852e+16
1.7899999999999975e-08,22133423.726967517,-3766996227511956.0,357.44612789589564,2.2418950524469292e+16
1.7999999999999976e-08,24404842.133635964,-4248480207212467.0,358.6899253479827,2.4656683617027804e+16
1.8099999999999977e-08,26963691.13595561,-4800867119259054.0,359.9556681639496,2.7151934192939948e+16
1.8199999999999978e-08,29850618.00357746,-5435571689466360.0,361.24362074348545,2.9936993247926216e+16
1.829999999999998e-08,33112467.360571165,-6165968671055206.0,362.5540477947863,3.3048455492856956e+16
1.839999999999998e-08,36803280.615072116,-7007746330108446.0,363.8872142599095,3.652781919808494e+16
1.849999999999998e-08,40985463.66794032,-7979326145698625.0,365.24338523859484,4.042217240858447e+16
1.859999999999998e-08,45731152.193087384,-9102361493663256.0,366.62282591056163,4.478497824946898e+16
1.8699999999999982e-08,51123809.011289485,-1.0402330598859696e+16,368.0258014562874,4.9676973940297416e+16
1.8799999999999983e-08,57260094.25906615,-1.1909242059590274e+16,369.4525769762773,5.516720032033774e+16
1.8899999999999984e-08,64252056.359409645,-1.3658474871134254e+16,370.90341740883247,6.1334181198218696e+16
1.8999999999999985e-08,72229700.43897678,-1.5691779224812486e+16,372.37858744632854,6.8267274727046136e+16
1.9099999999999986e-08,81344001.05228908,-1.8058469581175916e+16,373.8783514500145,7.60682223261349e+16
1.9199999999999987e-08,91770438.15839198,-2.08168477866902e+16,375.40297336334453,8.485292448728056e+16
1.9299999999999988e-08,103713149.59389816,-2.403590153402917e+16,376.95271662385596,9.475347719059832e+16
1.939999999999999e-08,117409810.2066063,-2.7797332510594984e+16,378.52784407360633,1.0592050769672186e+17
1.949999999999999e-08,133137367.83947149,-3.2197979442870376e+16,380.1286178681867,1.1852585427512315e+17
1.959999999999999e-08,151218790.05823284,-3.735271429138616e+16,381.7552993843247,1.3276564108289914e+17
1.969999999999999e-08,172031003.57550222,-4.339790552122394e+16,383.4081491260966,1.488638070508417e+17
1.9799999999999992e-08,196014241.54221407,-5.049556119225369e+16,385.0874266297651,1.670761564081861e+17
1.9899999999999993e-08,223683053.20394722,-5.8838287212498504e+16,386.7933903672628,1.876950085488172e+17
1.9999999999999994e-08,255639276.97865152,-6.865522323287197e+16,388.5262976483408,2.1105453649778394e+17
2.0099999999999995e-08,292587333.13308907,-8.02191512371012e+16,390.28640452140445,2.3753689649192294e+17
2.0199999999999996e-08,335352257.48963124,-9.38550109801484e+16,392.07396567305756,2.675792663862109e+17
2.0299999999999996e-08,384900974.8407244,-1.0995010334758581e+17,393.88923432637876,3.016819280158454e+17
2.0399999999999997e-08,442367402.18026733,-1.2896631899604613e+17,395.7324621379548,3.4041754859879456e+17
