t(s),Adsorbed H on surface 1 (H m-2),solute flux surface 1 (H m-2 s-1),Total T surface 1 (K),0 value at [0] (H m-3)
1e-08,1850174.3094380589,-1159133797408.268,300.6506757210265,700370744978005.9
2e-08,5408528.899874482,-3589267269956.786,301.61384603980065,1314190963080501.5
3.0000000000000004e-08,10592784.52531877,-7247166368905.566,302.8021017214263,1857725214155354.5
4e-08,17488457.782308634,-12327457242453.63,304.17033624746296,2387251296856079.0
5e-08,26338592.71448835,-19170909674482.043,305.6896052042055,2949863500237076.0
6e-08,37553481.42666005,-28294190701142.12,307.3391617756227,3588802561538569.0
6.999999999999999e-08,51737438.67229384,-40441496221615.695,309.10311657864344,4347466457214967.5
7.999999999999999e-08,69733098.3923142,-56662248217070.65,310.96875291056375,5272820835671332.0
8.999999999999999e-08,92685893.04706973,-78422647456806.7,312.92557041554676,6418620978476980.0
9.999999999999998e-08,122133258.69822037,-107762739912650.5,314.96469518876063,7848721908803628.0
1.0999999999999998e-07,160125061.2428326,-147515426529651.4,317.0784926812105,9640691724003668.0
1.2e-07,209383984.30901265,-201610029905329.78,319.26030120227455,1.1889918395003538e+16
1.3e-07,273517329.06400967,-275491168276538.16,321.50424128121944,1.4714395951500908e+16
1.4e-07,357295013.62417597,-376694418575347.1,323.8050749526806,1.8260384377635584e+16
1.5000000000000002e-07,467012698.55054075,-515634365802983.1,326.15809914337126,2.2709154739609084e+16
1.6000000000000003e-07,610964100.70398,-706679115233546.8,328.5590630898419,2.8285055043642376e+16
1.7000000000000004e-07,800052916.3496931,-969609399898333.8,331.0041031460612,3.5265162105421304e+16
1.8000000000000005e-07,1048582618.8610533,-1331591541297393.5,333.48969046580174,4.399081990869686e+16
1.9000000000000006e-07,1375272033.5061474,-1829833540247230.2,336.0125884086184,5.488140547813483e+16
2.0000000000000007e-07,1804556378.8351634,-2515144697549804.0,338.5698174190165,6.845070930538108e+16
2.1000000000000008e-07,2368247815.4524994,-3456684046826945.5,341.1586257389004,8.5326369047913e+16
2.200000000000001e-07,3107646936.7265644,-4748264688416334.0,343.77646473661963,1.0627285279423525e+17
2.300000000000001e-07,4076217621.44486,-6516683579430027.0,346.4209679353329,1.3221855187394734e+17
2.400000000000001e-07,5342962872.68535,-8932673832058341.0,349.0899330390709,1.642876131745467e+17
2.500000000000001e-07,6996669402.324309,-1.2225234167704548e+16,351.7813064127807,2.03837217353096e+17
2.600000000000001e-07,9151224590.53907,-1.6700283689254518e+16,354.4931695899727,2.5250109229258045e+17
2.700000000000001e-07,11952251956.701805,-2.276482618986992e+16,357.22372746995336,3.122401406816829e+17
2.800000000000001e-07,15585361429.023376,-3.0958094275270988e+16,359.9712979340062,3.854011566544475e+17
2.9000000000000014e-07,20286369611.95158,-4.199148796078901e+16,362.7343026618327,4.7478470889302054e+17
3.0000000000000015e-07,26353914153.841717,-5.679953430528497e+16,365.511258970056,5.83723376259636e+17
3.1000000000000016e-07,34164966561.715744,-7.66045841038134e+16,368.3007725264252,7.161716365646487e+17
3.2000000000000017e-07,44193840863.526375,-1.0299853953384206e+17,371.1015308186423,8.768088290611983e+17
3.300000000000002e-07,57035402969.50448,-1.3804558453473894e+17,373.9122972769681,1.071156736123592e+18
3.400000000000002e-07,73433309139.0522,-1.8441067984430384e+17,376.7319059660719,1.3057134586219167e+18
3.500000000000002e-07,94314243438.27386,-2.4551949978817706e+17,379.55925677485726,1.5881053919208113e+18
3.600000000000002e-07,120829285402.96973,-3.257565412502112e+17,382.3933110438295,1.9272592442380493e+18
3.700000000000002e-07,154403722328.3598,-4.307093400512629e+17,385.2330875785034,2.3335961751996964e+18
3.800000000000002e-07,196796827801.89062,-5.6746809949345626e+17,388.0776590047341,2.8192502685953075e+18
3.9000000000000024e-07,250173361462.79382,-7.449915830612643e+17,390.9261484280117,3.3983136882284646e+18
4.0000000000000025e-07,317188806749.2675,-9.745518606269908e+17,393.77772636391273,4.087110997932116e+18
4.1000000000000026e-07,401090655852.61145,-1.270272436559653e+18,396.6316079112345,4.904505254749866e+18
4.2000000000000027e-07,505838376519.4427,-1.6497764393117517e+18,399.4870501430031,5.872238606387378e+18
4.300000000000003e-07,636245055995.5844,-2.134963924335856e+18,402.3433496936624,7.0153102386894e+18
4.400000000000003e-07,798144115513.2024,-2.7529399427809224e+18,405.1998405233985,8.362394624457513e+18
4.500000000000003e-07,998584926439.2239,-3.537117862496802e+18,408.0558918428345,9.946303119770014e+18
4.600000000000003e-07,1246061638577.9692,-4.528525498246768e+18,410.91090618327985,1.1804492036508414e+19
4.700000000000003e-07,1550780054069.2236,-5.777344914891232e+18,413.764317599404,1.3979620388511197e+19
4.800000000000003e-07,1924967948592.2222,-7.344720308006038e+18,416.6155899926724,1.6520160562232185e+19
4.900000000000003e-07,2383234856722.9883,-9.304872135212767e+18,419.46421554513717,1.948106519962955e+19
5.000000000000003e-07,2942988001611.684,-1.1747559659469322e+19,422.3097132542952,2.2924493600059875e+19
5.100000000000003e-07,3624911761697.6226,-1.4780938260355109e+19,425.15162756068406,2.6920600948105056e+19
5.200000000000003e-07,4453518829717.064,-1.8534862255175578e+19,427.98952706073686,3.1548393654587048e+19
5.300000000000003e-07,5457782032213.175,-2.316468852915081e+19,430.82300329816536,3.689665405773129e+19
5.400000000000003e-07,6671856641206.752,-2.8855640980122325e+19,433.65166962779193,4.306493766985707e+19
5.500000000000003e-07,8135903923331.284,-3.5827800611628085e+19,436.47516014633976,5.016464607158298e+19
5.600000000000004e-07,9897027634874.703,-4.434179102882255e+19,439.2931286852011,5.832017844990167e+19
5.700000000000004e-07,12010336182676.396,-5.470523407101243e+19,442.10524786066395,6.767016464826738e+19
5.800000000000004e-07,14540144229128.373,-6.7280055315505226e+19,444.9112081774829,7.836878244576713e+19
5.900000000000004e-07,17561328622582.92,-8.249072416951905e+19,447.7107171820468,9.058716160823617e+19
6.000000000000004e-07,21160854679745.562,-1.0083351818606241e+20,450.50349866172184,1.0451487705652363e+20
6.100000000000004e-07,25439490031088.867,-1.2288690604834426e+20,453.28929188723544,1.2036153327560491e+20
6.200000000000004e-07,30513724460381.152,-1.4932314831406245e+20,456.06785089523703,1.3835844184233248e+20
6.300000000000004e-07,36517915420937.55,-1.809212194403783e+20,458.8389438083999,1.5876039367849253e+20
6.400000000000004e-07,43606680189421.79,-2.185811587626377e+20,461.60235219064657,1.818475273383905e+20
6.500000000000004e-07,51957555842972.445,-2.6333989735041198e+20,464.35787043527034,2.0792727846434128e+20
6.600000000000005e-07,61773954799766.164,-3.163889724620475e+20,467.10530518390004,2.3733648126208383e+20
6.700000000000005e-07,73288434423094.48,-3.790936954541606e+20,469.8444747744123,2.7044350022507024e+20
6.800000000000005e-07,86766311700846.4,-4.530144101400614e+20,472.57520871604095,3.076504922467763e+20
6.900000000000005e-07,102509648795170.17,-5.399297195343808e+20,475.2973471900608,3.493957639468765e+20
7.000000000000005e-07,120861638549407.06,-6.418618499539784e+20,478.01074057454343,3.96156223165102e+20
7.100000000000005e-07,142211420042891.8,-7.611042748990299e+20,480.71524899179093,4.484499243447646e+20
7.200000000000005e-07,166999355517716.7,-9.002517200993748e+20,483.41074187715276,5.06838705626675e+20
7.300000000000005e-07,195722801172715.22,-1.0622326687946501e+21,486.09709756801936,5.719309146063533e+20
7.400000000000005e-07,228942405418009.03,-1.2503444825843955e+21,488.7742029118719,6.443842188981727e+20
7.500000000000005e-07,267288969190550.34,-1.4682912478218546e+21,491.44195289234233,7.249084967587573e+20
7.600000000000006e-07,311470903825843.94,-1.7202244502756642e+21,494.1002502723084,8.142688020152092e+20
7.700000000000006e-07,362282322738766.75,-2.0107865713467578e+21,496.74900525311097,9.132883963993626e+20
7.800000000000006e-07,420611803758621.44,-2.3451576871534513e+21,499.3881351490425,1.0228518410837424e+21
7.900000000000006e-07,487451859357293.44,-2.729105136879115e+21,502.01756407630955,1.1439081377213969e+21
8.000000000000006e-07,563909152166478.8,-3.1690363084421925e+21,504.63722265572113,1.2774739075800136e+21
8.100000000000006e-07,651215493056255.6,-3.6720545672532764e+21,507.24704772840334,1.4246365953965744e+21
8.200000000000006e-07,750739658591708.4,-4.246018326942757e+21,509.8469820838833,1.5865576823241866e+21
8.300000000000006e-07,864000063837869.2,-4.899603228760464e+21,512.4369741999229,1.7644758897556316e+21
8.400000000000006e-07,992678325177950.6,-5.642367358055666e+21,515.0169779935263,1.9597103528430902e+21
8.500000000000006e-07,1138633745967503.0,-6.484819380928762e+21,517.5869525825702,2.1736637391403876e+21
8.600000000000007e-07,1303918755378299.2,-7.438489430788852e+21,520.1468620575473,2.407825283921867e+21
8.700000000000007e-07,1490795327588342.0,-8.516002512032086e+21,522.6966752629347,2.663773709324992e+21
8.800000000000007e-07,1701752404432705.5,-9.731154115153411e+21,525.2363655877357,2.943179989468229e+21
8.900000000000007e-07,1939524339613399.8,-1.1098987653010398e+22,527.7659107647595,3.2478099180562033e+21
9.000000000000007e-07,2207110376428996.8,-1.2635873230296032e+22,530.2852926782334,3.579526428651069e+21
9.100000000000007e-07,2507795163564104.0,-1.4359587146138628e+22,532.7944971793659,3.9402916107180415e+21
9.200000000000007e-07,2845170304596312.0,-1.6289391401728379e+22,535.2935139094917,4.332168356710412e+21
9.300000000000007e-07,3223156926339891.0,-1.8446112339653795e+22,537.7823361304621,4.757321566829638e+21
9.400000000000007e-07,3646029238742708.0,-2.085221737805047e+22,540.2609605619483,5.218018828682391e+21
9.500000000000008e-07,4118439044565675.0,-2.35318886198424e+22,542.7293872253542,5.71663047889821e+21
9.600000000000008e-07,4645441140274921.0,-2.651109191482305e+22,545.1876192940437,6.255628942942565e+21
9.700000000000007e-07,5232519530236777.0,-2.9817639730224845e+22,547.6356629496076,6.837587237990728e+21
9.800000000000006e-07,5885614354202369.0,-3.3481245944714535e+22,550.073527243906,7.465176512012171e+21
9.900000000000005e-07,6611149402997715.0,-3.753357042348091e+22,552.5012239666349,8.141162480425198e+21
1.0000000000000004e-06,7416060069124817.0,-4.200825096168225e+22,554.9187675181846,8.868400610190458e+21
1.0100000000000003e-06,8307821547507648.0,-4.694091990517165e+22,557.3261747875599,9.649829890503198e+21
1.0200000000000002e-06,9294477066835768.0,-5.236920247841998e+22,559.7234650351494,1.0488465019935815e+22
1.03e-06,1.0384665893919298e+16,-5.833269357973758e+22,562.110659780142,1.1387386832744123e+22
1.04e-06,1.1587650812355516e+16,-6.487290955601044e+22,564.487782692393,1.234973078300972e+22
1.05e-06,1.2913344732972094e+16,-7.203321125928923e+22,566.8548594885593,1.337867330545981e+22
1.0599999999999998e-06,1.4372336047516166e+16,-7.985869453535417e+22,569.2119178323229,1.4477415877459615e+22
1.0699999999999997e-06,1.5975912289716854e+16,-8.839604422325655e+22,571.5589872385402,1.5649166619266098e+22
1.0799999999999996e-06,1.7736081620273228e+16,-9.769334778192927e+22,573.8960989811534,1.6897119290749457e+22
1.0899999999999995e-06,1.9665591605962576e+16,-1.0779986483574027e+23,576.2232860047119,1.8224429574117267e+22
1.0999999999999994e-06,2.1777944719754676e+16,-1.1876574927840858e+23,578.5405828393617,1.9634188575418607e+22
1.1099999999999993e-06,2.408740995078869e+16,-1.306417211283664e+23,580.8480255191594,2.112939353438105e+22
1.1199999999999992e-06,2.6609029882963268e+16,-1.4347868612225925e+23,583.1456515035791,2.2712915803838305e+22
1.1299999999999991e-06,2.9358622581743616e+16,-1.573273020974673e+23,585.4334996020896,2.4387466247635328e+22
1.139999999999999e-06,3.235277762397722e+16,-1.7223749257342175e+23,587.7116099016748,2.6155558309814073e+22
1.149999999999999e-06,3.5608845618655324e+16,-1.8825790960874055e+23,589.9800236971855,2.801946912760056e+22
1.1599999999999988e-06,3.914492060137902e+16,-2.0543534998521893e+23,592.23878342441,2.9981199194592098e+22
1.1699999999999988e-06,4.2979814745399784e+16,-2.2381413102882297e+23,594.4879325957608,3.2042431225550067e+22
1.1799999999999987e-06,4.7133024920742664e+16,-2.4343543487530827e+23,596.7275157384701,3.420448902566102e+22
1.1899999999999986e-06,5.162469075262836e+16,-2.6433663264794514e+23,598.9575783352029,3.6468297318552085e+22
1.1999999999999985e-06,5.647554398265778e+16,-2.865506027288755e+23,601.1781667669927,3.883434363038296e+22
1.2099999999999984e-06,6.170684912101276e+16,-3.101050599327884e+23,603.3893282584088,4.130264345186568e+22
1.2199999999999983e-06,6.734033559339539e+16,-3.350219147603836e+23,605.5911108248742,4.3872709994548126e+22
1.2299999999999982e-06,7.339812182849346e+16,-3.6131668382355467e+23,607.7835632220475,4.654352990969851e+22
1.239999999999998e-06,7.990263199386581e+16,-3.889979737849382e+23,609.9667348971954,4.93135463352116e+22
1.249999999999998e-06,8.68765063611479e+16,-4.180670615330841e+23,612.1406759424764,5.218065056673206e+22
1.2599999999999979e-06,9.43425065537635e+16,-4.485175926332541e+23,614.3054370500666,5.5142183504657236e+22
1.2699999999999978e-06,1.0232341718813693e+17,-4.8033541820684844e+23,616.4610694690576,5.819494780360088e+22
1.2799999999999977e-06,1.1084194564747029e+17,-5.1349858721847186e+23,618.6076249640586,6.133523134518136e+22
1.2899999999999976e-06,1.199206219096241e+17,-5.479775066925269e+23,620.7451557754423,6.455884227481429e+22
1.2999999999999975e-06,1.2958170047220578e+17,-5.8373527674549e+23,622.8737145811708,6.786115540165679e+22
1.3099999999999974e-06,1.3984706646518194e+17,-6.20728200718479e+23,624.9933544601431,7.1237169278140665e+22
1.3199999999999973e-06,1.5073814800395654e+17,-6.589064634453403e+23,627.1041288570095,7.468157277808579e+22
1.3299999999999972e-06,1.622758367081546e+17,-6.982149632021936e+23,629.2060915483972,7.81888195114538e+22
1.3399999999999971e-06,1.7448041809306768e+17,-7.385942756259032e+23,631.299296610495,8.175320798305189e+22
1.349999999999997e-06,1.873715132377041e+17,-7.799817213570607e+23,633.3837983879486,8.536896505510636e+22
1.359999999999997e-06,2.0096803275766262e+17,-8.22312503834262e+23,635.4596514640159,8.90303300390322e+22
1.3699999999999968e-06,2.1528814368031645e+17,-8.655208799518123e+23,637.5269106319392,9.273163664248152e+22
1.3799999999999967e-06,2.303492493563226e+17,-9.095413244957118e+23,639.585630867487,9.646739004682887e+22
1.3899999999999966e-06,2.4616798207051706e+17,-9.543096495553649e+23,641.6358673026243,1.0023233658926586e+23
1.3999999999999965e-06,2.6276020756310566e+17,-9.997640424738537e+23,643.6776752002696,1.0402152386229681e+23
1.4099999999999965e-06,2.8014104026393786e+17,-1.0458459901888081e+24,645.7111099300989,1.078303494999974e+23
1.4199999999999964e-06,2.9832486770069e+17,-1.0925010637227633e+24,647.73622694536,1.1165459746390034e+23
1.4299999999999963e-06,3.17325382283307e+17,-1.139679543683244e+24,649.7530817606576,1.1549046123433278e+23
1.4399999999999962e-06,3.371556185033154e+17,-1.1873368754295225e+24,651.7617299306767,1.1933455391508663e+23
1.449999999999996e-06,3.578279935221616e+17,-1.235433950527176e+24,653.762227029809,1.2318390583098542e+23
1.459999999999996e-06,3.793543491553479e+17,-1.283937218733775e+24,655.7546286326506,1.2703595070408622e+23
1.4699999999999959e-06,4.017459933804725e+17,-1.3328186415905184e+24,657.738990295336,1.308885019070258e+23
1.4799999999999958e-06,4.250137396938978e+17,-1.3820555043801282e+24,659.7153675376837,1.3473972059255891e+23
1.4899999999999957e-06,4.4916794289558304e+17,-1.431630107509339e+24,661.6838158261198,1.3858807767771694e+23
1.4999999999999956e-06,4.742185301755057e+17,-1.4815293611657654e+24,663.6443905573518,1.4243231172005847e+23
1.5099999999999955e-06,5.0017502668848755e+17,-1.53174430838218e+24,665.5971470427689,1.462713846715141e+23
1.5199999999999954e-06,5.2704657511860045e+17,-1.5822696015182064e+24,667.5421404935371,1.501044373485035e+23
1.5299999999999953e-06,5.548419490333193e+17,-1.6331029558243914e+24,669.4794260063688,1.5393074623606128e+23
1.5399999999999952e-06,5.835695600979382e+17,-1.6842446014272785e+24,671.4090585499406,1.57749682971697e+23
1.5499999999999951e-06,6.132374594527677e+17,-1.735696752037832e+24,673.3310929519347,1.6156067755487823e+23
1.559999999999995e-06,6.438533337432541e+17,-1.787463105216616e+24,675.2455838866838,1.653631860219701e+23
1.569999999999995e-06,6.754244964339119e+17,-1.839548385389224e+24,677.1525858633954,1.6915666303273935e+23
1.5799999999999948e-06,7.079578751314733e+17,-1.891957937225232e+24,679.0521532149364,1.7294053954785897e+23
1.5899999999999947e-06,7.414599956940852e+17,-1.9446973736613114e+24,680.9443400871554,1.767142055475667e+23
1.5999999999999946e-06,7.759369639168195e+17,-1.9977722799041942e+24,682.8292004287264,1.804769975558822e+23
1.6099999999999945e-06,8.113944455654454e+17,-2.0511879722827068e+24,684.7067879814916,1.8422819059469635e+23
1.6199999999999944e-06,8.478376454872335e+17,-2.1049493088749263e+24,686.5771562712872,1.87966994096542e+23
1.6299999999999943e-06,8.852712864663498e+17,-2.1590605474208565e+24,688.4403585992345,1.916925512501368e+23
1.6399999999999943e-06,9.236995884186327e+17,-2.2135252451143056e+24,690.296448033478,1.9540394123339302e+23
1.6499999999999942e-06,9.631262484418948e+17,-2.268346194396919e+24,692.1454774013566,1.991001837979293e+23
1.659999999999994e-06,1.0035544221581002e+18,-2.3235253887836037e+24,693.9874992819889,2.0278024570028534e+23
1.669999999999994e-06,1.0449867067065458e+18,-2.37906401295519e+24,695.8225659992604,2.0644304852131843e+23
1.6799999999999939e-06,1.0874251256751521e+18,-2.434962451782666e+24,697.6507296151962,2.100874774705215e+23
1.6899999999999938e-06,1.1308711161918671e+18,-2.491220313524165e+24,699.4720419237051,2.1371239083106927e+23
1.6999999999999937e-06,1.1753255183408328e+18,-2.547836463094843e+24,701.2865544446828,2.1731662976003448e+23
1.7099999999999936e-06,1.220788567018553e+18,-2.6048090619958574e+24,703.0943184184582,2.208990282133714e+23
1.7199999999999935e-06,1.2672598863034808e+18,-2.662135612158231e+24,704.8953848005734,2.244584228148189e+23
1.7299999999999934e-06,1.3147384863775142e+18,-2.719813001578378e+24,706.6898042568821,2.2799366253062848e+23
1.7399999999999933e-06,1.3632227630089649e+18,-2.7778375501740406e+24,708.4776271589576,2.315036180475967e+23
1.7499999999999932e-06,1.4127104995826258e+18,-2.836205054760325e+24,710.2589035797952,2.3498719078035287e+23
1.759999999999993e-06,1.4631988716426578e+18,-2.8949108324326503e+24,712.0336832898007,2.3844332145584374e+23
1.769999999999993e-06,1.514684453897217e+18,-2.9539497619484743e+24,713.8020157530542,2.4187099823924598e+23
1.779999999999993e-06,1.567163229619287e+18,-3.0133163229298156e+24,715.563950123837,2.452692643771075e+23
1.7899999999999928e-06,1.6206306023654113e+18,-3.073004632872859e+24,717.319535243413,2.4863722534131925e+23
1.7999999999999927e-06,1.6750814099224773e+18,-3.1330084820601107e+24,719.0688196370558,2.5197405546252627e+23
1.8099999999999926e-06,1.730509940382016e+18,-3.193321366535069e+24,720.8118515113089,2.5527900404457038e+23
1.8199999999999925e-06,1.7869099502314609e+18,-3.2539365193299566e+24,722.5486787514745,2.58551400953283e+23
1.8299999999999924e-06,1.8442746843423252e+18,-3.314846940142304e+24,724.2793489193187,2.6179066167394486e+23
1.8399999999999923e-06,1.902596897726314e+18,-3.3760454236444424e+24,726.003909250986,2.6499629183243563e+23
1.8499999999999922e-06,1.961868878921988e+18,-3.437524586587284e+24,727.7224066551149,2.6816789117583494e+23
1.8599999999999921e-06,2.0220824748668667e+18,-3.4992768938314806e+24,729.4348877111478,2.7130515700920275e+23
1.869999999999992e-06,2.083229117102861e+18,-3.561294683408463e+24,731.1413986678245,2.7440788708655582e+23
1.879999999999992e-06,2.145299849156815e+18,-3.623570190684413e+24,732.8419854418571,2.7747598195576903e+23
1.8899999999999919e-06,2.2082853549327944e+18,-3.6860955716725233e+24,734.5366936167732,2.8050944675918626e+23
