t(s),Adsorbed H on surface 1 (H m-2),solute flux surface 1 (H m-2 s-1),Total T surface 1 (K),0 value at [0] (H m-3)
1e-10,212.07811673121762,-71400325593.17311,300.03544434197494,8156160719315.693
2e-10,629.7808853739666,-153513405853.46988,300.05442778507813,16056272462842.402
3e-10,1246.6300706138509,-245740867831.80753,300.0696635677437,23702044435357.555
4e-10,2056.3645006265533,-347628298979.53186,300.0832287568247,31102662828942.69
5e-10,3052.960890288332,-458747223070.60284,300.0958917125275,38267715954866.84
6e-10,4230.637803812815,-578690756717.7867,300.1080334793378,45206772725025.84
7e-10,5583.853303581348,-707071647455.3904,300.11987590667917,51929217398793.07
7.999999999999999e-10,7107.2997673105965,-843521036660.8109,300.13156235638394,58444175764691.05
8.999999999999999e-10,8795.89733742506,-987687513498.0457,300.14319268782356,64760481082244.266
9.999999999999999e-10,10644.786712604693,-1139236311256.5303,300.15484059334176,70886659631109.17
1.1e-09,12649.321659903384,-1297848586087.7617,300.1665630493394,76830926779600.19
1.2e-09,14805.061462569998,-1463220750912.5286,300.17840585371954,82601189024874.23
1.3e-09,17107.763431331823,-1635063850927.4836,300.19040705866126,88205049544145.5
1.4000000000000001e-09,19553.37555706072,-1813102973355.3845,300.2025991978136,93649815842860.45
1.5000000000000002e-09,22138.02935285357,-1997076687112.292,300.21501078671406,98942508647900.52
1.6000000000000003e-09,24858.032914908574,-2186736509625.176,300.22766736616,104089871513132.33
1.7000000000000003e-09,27709.86421957033,-2381846398875.674,300.24059224774936,109098380794480.23
1.8000000000000004e-09,30690.16466599151,-2582182269220.591,300.2538070593622,113974255769039.98
1.9000000000000005e-09,33795.73286853143,-2787531529819.0806,300.2673321526871,118723468747674.28
2.0000000000000005e-09,37023.51869938434,-2997692644668.396,300.2811869134181,123351755079713.83
2.1000000000000006e-09,40370.61757944357,-3212474713361.9746,300.2953900013888,127864622981439.56
2.2000000000000007e-09,43834.265013702134,-3431697071760.3013,300.3099595393643,132267363142682.81
2.3000000000000007e-09,47411.831366330356,-3655188911821.775,300.3249132636066,136565058081680.42
2.400000000000001e-09,51100.81686979723,-3882788919885.1772,300.3402686455711,140762591229493.16
2.500000000000001e-09,54898.84686190525,-4114344932732.5195,300.3560429915178,144864655733283.38
2.600000000000001e-09,58803.6672443131,-4349713610793.6724,300.37225352503225,148875762973508.06
2.700000000000001e-09,62813.14015597171,-4588760127884.078,300.3889174561795,152800250794262.72
2.800000000000001e-09,66925.23985485893,-4831357876894.634,300.40605204010427,156642291449050.06
2.900000000000001e-09,71138.04880143768,-5077388190879.815,300.4236746272248,160405899266459.97
3.0000000000000012e-09,75449.7539373612,-5326740079015.69,300.44180270667823,164094938041848.22
3.1000000000000013e-09,79858.64315309175,-5579309976924.843,300.4604539443088,167713128162249.6
3.2000000000000014e-09,84363.1019382739,-5835001510889.804,300.479646216214,171264053472572.4
3.3000000000000014e-09,88961.61020890212,-6093725275500.5625,300.4993976386528,174751167891677.88
3.4000000000000015e-09,93652.73930553747,-6355398624305.703,300.5197265949591,178177801787312.28
3.5000000000000016e-09,98435.14915705641,-6619945473059.876,300.54065175997687,181547168119080.88
3.6000000000000016e-09,103307.58560464936,-6887296115183.306,300.5621921224356,184862368358761.94
3.7000000000000017e-09,108268.87788102879,-7157387049071.685,300.5843670056069,188126398197288.9
3.800000000000002e-09,113317.93624005005,-7430160816916.948,300.6071960865219,191342153047693.34
3.900000000000002e-09,118453.74973219451,-7705565854721.649,300.63069941397964,194512433353222.62
4.000000000000002e-09,123675.38412161055,-7983556353211.121,300.6548974255371,197639949709734.28
4.100000000000002e-09,128981.9799406539,-8264092129368.958,300.67981096363945,200727327811330.22
4.200000000000002e-09,134372.75067811346,-8547138508343.085,300.7054612910232,203777113228044.06
4.300000000000002e-09,139846.98109755229,-8832666215489.99,300.73187010550345,206791776024231.2
4.400000000000002e-09,145404.02568243473,-9120651278346.102,300.75905955423883,209773715226144.22
4.500000000000002e-09,151043.30720495144,-9411074938335.861,300.78705224755333,212725263147007.9
4.600000000000002e-09,156764.31541569156,-9703923572046.545,300.8158712723817,215648689577741.28
4.700000000000002e-09,162566.60585154922,-9999188621921.129,300.84554020539645,218546205851312.84
4.8000000000000024e-09,168449.7987594866,-10296866536240.18,300.87608312586343,221419968788558.2
4.9000000000000025e-09,174413.57813401075,-10596958718285.68,300.9075246282688,224272084533142.84
5.0000000000000026e-09,180457.69086645532,-10899471484599.486,300.9398898347516,227104612283214.3
5.100000000000003e-09,186581.94600439334,-11204416032271.105,300.97320440737366,229919567927161.4
5.200000000000003e-09,192786.21411973968,-11511808415209.879,301.0074945602503,232718927590781.6
5.300000000000003e-09,199070.42678433887,-11821669529379.398,301.04278707156715,235504631103056.16
5.400000000000003e-09,205434.57615206865,-12134025106992.543,301.0791092954991,238278585387641.88
5.500000000000003e-09,211878.71464672938,-12448905719689.66,301.1164891740494,241042667787114.34
5.600000000000003e-09,218402.95475522932,-12766346790743.738,301.1549552488215,243798729326935.3
5.700000000000003e-09,225007.46892582037,-13086388616361.38,301.19453667273666,246548597926074.03
5.800000000000003e-09,231692.48957138704,-13409076396171.793,301.235263221705,249294081561180.72
5.900000000000003e-09,238458.3091780438,-13734460273021.574,301.2771653062607,252036971391201.25
6.000000000000003e-09,245305.28051955497,-14062595382218.82,301.32027398316626,254779044849324.16
6.100000000000003e-09,252233.81697835526,-14393541910397.201,301.3646209669919,257522068709177.7
6.200000000000003e-09,259244.39297422173,-14727365164198.73,301.4102386416751,260267802132233.9
6.3000000000000035e-09,266337.54450192803,-15064135649003.076,301.4571600720629,263017999703441.2
6.4000000000000035e-09,273513.8697795014,-15403929157962.48,301.50541901543994,265774414462187.94
6.500000000000004e-09,280774.03000900336,-15746826871632.773,301.55504993304396,268538800935804.88
6.600000000000004e-09,288118.75025206566,-16092915468525.424,301.60608800156933,271312918182938.9
6.700000000000004e-09,295548.82042273984,-16442287246941.373,301.6585691246602,274098532854284.16
6.800000000000004e-09,303065.0964005546,-16795040258484.078,301.71252994439095,276897422278328.12
6.900000000000004e-09,310668.5012670325,-17151278453690.24,301.7680078527356,279711377579975.0
7.000000000000004e-09,318360.026669288,-17511111840258.3,301.8250410030229,282542206840134.94
7.100000000000004e-09,326140.7343147185,-17874656654399.29,301.88366832137615,285391738304628.75
7.200000000000004e-09,334011.7576012146,-18242035545883.39,301.943929518136,288261823651044.6
7.300000000000004e-09,341974.30338774563,-18613377777405.074,302.0058650992625,291154341322508.0
7.400000000000004e-09,350029.65391063935,-18988819438944.918,302.0695163777149,294071199937681.25
7.500000000000004e-09,358179.1688513574,-19368503677863.1,302.1349254848038,297014341786705.6
7.600000000000004e-09,366424.28756208514,-19752580945522.758,302.20213538151455,299985746423231.6
7.700000000000003e-09,374766.5314560007,-20141209261306.414,302.2711898697959,302987434363161.0
7.800000000000002e-09,383207.50656967075,-20534554494960.375,302.34213360380994,306021470901246.1
7.900000000000001e-09,391748.90630564047,-20932790668278.68,302.4150121011402,309089970057263.25
8e-09,400392.51436394587,-21336100277219.305,302.48987175395087,312195098664099.2
8.1e-09,409140.2078719839,-21744674635634.43,302.5667598400937,315339080610770.1
8.199999999999999e-09,417993.96072293015,-22158714241890.87,302.6457245341565,318524201254131.0
8.299999999999998e-09,426955.8471337027,-22578429169760.1,302.7268149184479,321752812013838.44
8.399999999999997e-09,436028.0454343358,-23004039485066.242,302.8100809939119,325027335166003.0
8.499999999999997e-09,445212.84210155695,-23435775689701.18,302.89557369096735,328350268851917.5
8.599999999999996e-09,454512.63605035696,-23873879194744.15,302.98334488026455,331724192319278.1
8.699999999999995e-09,463929.94319841516,-24318602824561.87,303.07344738335354,335151771414432.9
8.799999999999994e-09,473467.4013193928,-24770211353917.617,303.1659349832572,338635764345405.6
8.899999999999994e-09,483127.7752023488,-25228982080278.85,303.2608624349416,342179027736761.56
8.999999999999993e-09,492913.9621358684,-25695205433692.27,303.35828547567706,345784522998801.9
9.099999999999992e-09,502828.9977369332,-26169185626785.145,303.4582608352825,349455323035129.2
9.199999999999991e-09,512876.06214611826,-26651241347661.7,303.56084624624526,353194619314296.9
9.29999999999999e-09,523058.48661237664,-27141706498688.027,303.6661004537089,357005729333079.25
9.39999999999999e-09,533379.7604924848,-27640930984407.297,303.77408322532114,360892104500867.44
9.499999999999989e-09,543843.5386921826,-28149281552091.418,303.8848553609336,364857338476841.06
9.599999999999988e-09,554453.6495781599,-28667142688729.707,303.99847870214535,368905175993879.4
9.699999999999988e-09,565214.1033923373,-29194917578569.63,304.11501614168156,373039522205698.56
9.799999999999987e-09,576129.1012023744,-29733029125671.7,304.23453163259916,377264452596431.0
9.899999999999986e-09,587203.0444250321,-30281921046316.63,304.35709019730984,381584223494827.25
9.999999999999985e-09,598440.5449619388,-30842059036514.613,304.4827579364128,386003283238481.1
1.0099999999999985e-08,609846.4359904827,-31413932020314.574,304.61160203732663,390526284036973.56
1.0199999999999984e-08,621425.7834559937,-31998053485102.4,304.7436907827124,395158094586627.2
1.0299999999999983e-08,633183.8983151229,-32594962910613.465,304.87909355867805,399903813493691.94
1.0399999999999982e-08,645126.3495843961,-33205227298969.992,305.017880862754,404768783567263.8
1.0499999999999982e-08,657258.9782523431,-33829442813697.734,305.1601243116317,409758607048119.25
1.059999999999998e-08,669587.9121184238,-34468236536378.11,305.3058966486541,414879161844949.9
1.069999999999998e-08,682119.5816272193,-35122268350362.934,305.4552717510482,420136618855255.56
1.079999999999998e-08,694860.736772075,-35792232961825.37,305.6083246368906,425537460454437.75
1.0899999999999978e-08,707818.4651486196,-36478862069346.98,305.7651314717947,431088500243479.1
1.0999999999999978e-08,721000.2112453899,-37182926694260.04,305.92576957531,436796904153047.06
1.1099999999999977e-08,734413.7970662155,-37905239685084.01,306.0903174270229,442670213009985.75
1.1199999999999976e-08,748067.4441871378,-38646658410625.336,306.25885467234804,448716366681019.94
1.1299999999999975e-08,761969.7973595024,-39408087657664.4,306.43146212800053,454943729918153.25
1.1399999999999975e-08,776129.9497805684,-40190482750643.92,306.6082217871371,461361120040788.9
1.1499999999999974e-08,790557.470163588,-40994852912416.91,306.7892168241566,467977836601110.25
1.1599999999999973e-08,805262.4317509367,-41822264886921.8,306.974531599148,474803693191827.5
1.1699999999999972e-08,820255.4434266051,-42673846846649.76,307.1642516619752,481849051569131.7
1.1799999999999972e-08,835547.6830983214,-43550792609977.09,307.35846375598794,489124858278710.3
1.1899999999999971e-08,851150.9335348861,-44454366195866.266,307.5572558213469,496642683989094.25
1.199999999999997e-08,867077.6208611018,-45385906746137.96,307.760716997953,504414765754565.75
1.209999999999997e-08,883340.8559311375,-46346833848487.24,307.96893762796776,512454052449520.4
1.2199999999999969e-08,899954.4788214415,-47338653296718.6,308.18200925791564,520774253637693.9
1.2299999999999968e-08,916933.1067066132,-48362963328322.4,308.4000246403552,529389892163255.4
1.2399999999999967e-08,934292.1854061707,-49421461383560.23,308.6230777351086,538316360776607.3
1.2499999999999966e-08,952048.0449171549,-50515951434715.805,308.85126371003804,547569983136075.06
1.2599999999999966e-08,970217.9592772481,-51648351939145.22,309.0846789413566,557168079557755.75
1.2699999999999965e-08,988820.2111358654,-52820704475292.82,309.3234210134638,567129037919913.6
1.2799999999999964e-08,1007874.1614468285,-54035183126982.81,309.5675887182931,577472390165769.4
1.2899999999999963e-08,1027400.3247361204,-55294104688131.69,309.8172820541596,588218894889682.1
1.2999999999999963e-08,1047420.4504422677,-56599939767634.91,310.07260222409786,599390626536940.2
1.3099999999999962e-08,1067957.610875562,-57955324882648.26,310.3336516336772,611011071797102.5
1.3199999999999961e-08,1089036.2963961344,-59363075637926.945,310.60053388828334,623105233825518.6
1.329999999999996e-08,1110682.5184704124,-60826201099409.99,310.87335378985495,635699744987843.4
1.339999999999996e-08,1132923.9213313672,-62347919481987.81,311.15221733306396,648822988888621.8
1.3499999999999959e-08,1155789.903040929,-63931675284508.164,311.437231700928,662505232518012.2
1.3599999999999958e-08,1179311.7468338131,-65581158019738.31,311.72850525984387,676778769431135.6
1.3699999999999957e-08,1203522.7637116818,-67300322703398.43,312.0261475540306,691678074963216.2
1.3799999999999956e-08,1228458.447356085,-69093412284729.59,312.3302692993713,707239974581477.9
1.3899999999999956e-08,1254156.6425391205,-70964982221612.98,312.6409823766424,723503826582675.4
1.3999999999999955e-08,1280657.7283335242,-72919927426285.7,312.9583998241196,740511720464288.4
1.4099999999999954e-08,1308004.8175603996,-74963511833530.34,313.2826358295494,758308692428978.0
1.4199999999999953e-08,1336243.9740646305,-77101400872207.08,313.61380572147544,776942959627311.4
1.4299999999999953e-08,1365424.4495770505,-79339697153553.45,313.95202595990946,796466174904476.2
1.4399999999999952e-08,1395598.9421107143,-81684979726274.69,314.29741412633575,816933703994464.4
1.4499999999999951e-08,1426823.87804845,-84144347289605.56,314.6500889130392,838404927301867.1
1.459999999999995e-08,1459159.7203129048,-86725465801851.86,315.01017011174633,860943568629117.6
1.469999999999995e-08,1492671.30527146,-89436620974101.27,315.3777786015694,884618053448093.0
1.4799999999999949e-08,1527428.2113200314,-92286776197608.42,315.7530363362441,909501899582059.9
1.4899999999999948e-08,1563505.1624156474,-95285636519702.58,316.1360663306506,935674143459959.4
1.499999999999995e-08,1600982.4701920399,-98443719357952.42,316.5269926466078,963219805433262.5
1.509999999999995e-08,1639946.5187001275,-101772432726917.56,316.9259403779339,992230398009723.8
1.519999999999995e-08,1680490.2962716015,-105284161847434.8,317.3330356347606,1022804481262432.9
1.5299999999999952e-08,1722713.979515022,-108992365116561.06,317.74840552709543,1055048270121169.4
1.5399999999999953e-08,1766725.575026818,-112911680538745.33,318.1721781476212,1089076298751339.2
1.5499999999999954e-08,1812641.6250422548,-117058043857518.39,318.60448255372535,1125012147779409.4
1.5599999999999954e-08,1860587.9839726833,-121448819784242.47,319.0454487487507,1162989240739206.0
1.5699999999999955e-08,1910700.6735853662,-126102947898864.67,319.4952076624597,1203151716797819.2
1.5799999999999956e-08,1963126.8254923173,-131041105000133.98,319.9538911307042,1245655387581260.2
1.5899999999999957e-08,2018025.720637962,-136285885912830.55,320.42163187429463,1290668786767362.0
1.5999999999999958e-08,2075569.9366267754,-141862005021109.72,320.89856347705955,1338374322056857.2
1.609999999999996e-08,2135946.6150282193,-147796521094637.44,321.384820363091,1388969540184336.2
1.619999999999996e-08,2199358.86225634,-154119088312952.94,321.88053777316765,1442668516801573.8
1.629999999999996e-08,2266027.299267078,-160862236779423.7,322.38585174035006,1499703384370718.0
1.639999999999996e-08,2336191.7771723284,-168061686256120.44,322.9008990647433,1560326012659934.5
1.6499999999999962e-08,2410113.277964299,-175756697352849.84,323.4258172874198,1624809858057205.8
1.6599999999999963e-08,2488076.0219086832,-183990464976551.56,323.9607446634988,1693451999729070.2
1.6699999999999964e-08,2570389.8058372373,-192810559501794.78,324.5058201343773,1766575382672709.5
1.6799999999999965e-08,2657392.599591042,-202269421871308.78,325.0611832991078,1844531289967083.2
1.6899999999999966e-08,2749453.4312826125,-212424919691339.06,325.62697438491983,1927702069050242.0
1.6999999999999967e-08,2846975.5959122283,-223340972366253.1,326.203334216881,2016504139667190.5
1.7099999999999968e-08,2950400.2262532664,-235088254438879.25,326.79040418669484,2111391314281561.8
1.719999999999997e-08,3060210.2698835903,-247744987589083.75,327.388326220633,2212858465264977.5
1.729999999999997e-08,3176934.921865864,-261397833217975.12,327.99724274659906,2321445577115427.5
1.739999999999997e-08,3301154.5689613516,-276142899237683.66,328.61729666032267,2437742226360944.0
1.749999999999997e-08,3433506.308504775,-292086876630246.06,329.2486312906827,2562392536734211.0
1.7599999999999972e-08,3574690.113292925,-309348323572320.5,329.89139036415804,2696100662721534.0
1.7699999999999973e-08,3725475.7231850335,-328059117490026.56,330.5457179684065,2839636860767710.0
1.7799999999999974e-08,3886710.354736654,-348366098361934.9,331.21175851497117,2993844214337588.0
1.7899999999999975e-08,4059327.3322720616,-370432929988267.2,331.88965670111526,3159646086786475.0
1.7999999999999976e-08,4244355.757550592,-394442209860393.3,332.5795574707866,3338054384677108.0
1.8099999999999977e-08,4442931.350837743,-420597862777636.0,333.2816059747133,3530178723915595.0
1.8199999999999978e-08,4656308.614025076,-449127858562101.75,333.99594752963185,3737236601991737.0
1.829999999999998e-08,4885874.486766757,-480287300225865.56,334.72272757665274,3960564691845762.0
1.839999999999998e-08,5133163.689773978,-514361935874912.9,335.4620916387638,4201631386606910.0
1.849999999999998e-08,5399875.975843309,-551672155638195.7,336.2141852774771,4462050739843395.5
1.859999999999998e-08,5687895.539364291,-592577544158949.2,336.979154048623,4743597963234438.0
1.8699999999999982e-08,5999312.869498072,-637482069878267.5,337.7571434572961,5048226662955498.0
1.8799999999999983e-08,6336449.371566639,-686840004709215.9,338.54829891195874,5378088017818820.0
1.8899999999999984e-08,6701885.126157554,-741162682012974.6,339.3527656777083,5735552126626418.0
1.8999999999999985e-08,7098490.2068557525,-801026217360120.5,340.1706888287139,6123231779601698.0
1.9099999999999986e-08,7529460.036308569,-867080335755232.6,341.00221319983075,6544008939540299.0
1.9199999999999987e-08,7998355.327600968,-940058471246519.5,341.8474833373999,7001064252877407.0
1.9299999999999988e-08,8509147.234916681,-1020789330629154.2,342.70664344924023,7497909949676509.0
1.939999999999999e-08,9066268.425627118,-1110210142858127.6,343.57983735384374,8038426535130436.0
1.949999999999999e-08,9674670.886939416,-1209381850485457.5,344.4672084287822,8626903724121213.0
1.959999999999999e-08,10339891.395953378,-1319506539710476.5,345.368899558336,9268086125376248.0
1.969999999999999e-08,11068125.714616565,-1441947452393077.5,346.28505308035585,9967224243531224.0
1.9799999999999992e-08,11866312.723151,-1578251977691433.8,347.21581073236837,1.0730131436804392e+16
1.9899999999999993e-08,12742229.879957873,-1730178084087983.8,348.1613135969385,1.1563247545944218e+16
1.9999999999999994e-08,13704601.59613168,-1899724725904733.2,349.12170204630047,1.2473709997690416e+16
2.0099999999999995e-08,14763222.342380758,-2089166843666690.0,350.09711568627114,1.3469433284373454e+16
2.0199999999999996e-08,15929096.569788236,-2301095676813912.5,351.08769329945943,1.4559197831802108e+16
2.0299999999999996e-08,17214597.828557055,-2538465222578477.5,352.0935727877866,1.5752749391744568e+16
2.0399999999999997e-08,18633649.816538364,-2804645809001996.5,353.1148911143322,1.7060910234771768e+16
2.0499999999999998e-08,20201932.488706533,-3103485906184093.0,354.1517842445222,1.8495703575878228e+16
2.06e-08,21937116.817602005,-3439383481550121.0,355.20438708667507,2.0070492841228612e+16
