t(s),Adsorbed H on surface 1 (H m-2),solute flux surface 1 (H m-2 s-1),Total T surface 1 (K),0 value at [0] (H m-3)
1e-10,216.7462022549455,-72875490314.12263,300.1771063601782,8305312759198.529
2e-10,646.5639025625139,-157798585816.50662,300.27202527348305,16429613064024.932
3e-10,1284.9916654764716,-254119563373.0954,300.34820595223556,24355854935232.38
4e-10,2127.4641538210176,-361429052646.9802,300.416033620948,32084083379794.156
5e-10,3169.469197237262,-479365730656.12494,300.4793501656885,39618381271316.88
6e-10,4406.6183300020775,-607598369619.0507,300.54006085307896,46964676556918.58
7e-10,5834.68361623766,-745819604137.7836,300.5992749571751,54129832778346.586
7.999999999999999e-10,7449.618263898217,-893743163547.0801,300.6577093068406,61121200059453.97
8.999999999999999e-10,9247.56843919984,-1051102414377.9061,300.71586321546596,67946368366197.04
9.999999999999999e-10,11224.879922162241,-1217649479276.432,300.77410515997263,74613022228373.05
1.1e-09,13378.101583473173,-1393154640182.4614,300.8327200371607,81128851379292.81
1.2e-09,15703.986843661105,-1577405896634.2856,300.89193685144465,87501494454811.78
1.3e-09,18199.49383575913,-1770208617890.1265,300.9519458790362,93738503326488.64
1.4000000000000001e-09,20861.784740578914,-1971385258320.898,301.01290980412375,99847320879002.86
1.5000000000000002e-09,23688.224611528185,-2180775120433.8545,301.07497122111863,105835267857063.97
1.6000000000000003e-09,26676.3799100642,-2398234157489.833,301.13825785163493,111709536008471.73
1.7000000000000003e-09,29824.016910398997,-2623634811720.955,301.202886272301,117477185704708.42
1.8000000000000004e-09,33129.1000901803,-2856865886385.6323,301.2689646422627,123145146812670.88
1.9000000000000005e-09,36589.790595134575,-3097832451170.3364,301.33659474090837,128720221971269.1
2.0000000000000005e-09,40204.44484559234,-3346455781202.873,301.40587351894516,134209091677965.4
2.1000000000000006e-09,43971.61333862301,-3602673330413.1626,301.4768942991609,139618320760956.92
2.2000000000000007e-09,47890.03968939451,-3866438740293.2217,301.54974772047757,144954365931304.56
2.3000000000000007e-09,51958.65994816151,-4137721885340.2607,301.62452249087585,150223584193538.4
2.400000000000001e-09,56176.602224183654,-4416508956657.328,301.7013059959765,155432241954297.5
2.500000000000001e-09,60543.186644340174,-4702802585359.013,301.78018479720356,160586524713632.75
2.600000000000001e-09,65057.925671863326,-4996622007601.108,301.8612450444978,165692547257508.94
2.700000000000001e-09,69720.52480919527,-5298003273230.946,301.94457282220253,170756364296040.66
2.800000000000001e-09,74530.88370829474,-5606999500247.089,302.03025444218497,175783981512314.25
2.900000000000001e-09,79489.09771164719,-5923681177466.571,302.1183766949341,180781367002861.47
3.0000000000000012e-09,84595.45984767034,-6248136518028.422,302.2090270669219,185754463104075.9
3.1000000000000013e-09,89850.4633050904,-6580471866617.648,302.3022939306857,190709198609912.0
3.2000000000000014e-09,95254.80441214697,-6920812163575.754,302.39826671270765,195651501395682.84
3.3000000000000014e-09,100809.38614813796,-7269301469376.02,302.4970360431137,200587311471120.22
3.4000000000000015e-09,106515.32221682326,-7626103553286.878,302.59869389040614,205522594493430.53
3.5000000000000016e-09,112373.9417135617,-7991402550428.099,302.7033336838135,210463355778137.38
3.6000000000000016e-09,118386.79442076119,-8365403691845.703,302.81105042535137,215415654852261.66
3.7000000000000017e-09,124555.65676928862,-8748334112697.404,302.9219407932991,220385620601034.66
3.800000000000002e-09,130882.53850692879,-9140443744154.389,303.0361032384907,225379467066011.97
3.900000000000002e-09,137369.69011882442,-9542006295194.324,303.1536380745709,230403509959293.0
4.000000000000002e-09,144019.61104910105,-9953320331088.838,303.2746475631715,235464183965668.78
4.100000000000002e-09,150835.0587776154,-10374710456084.36,303.3992359948002,240568060912027.9
4.200000000000002e-09,157819.05881100748,-10806528608545.771,303.5275097661067,245721868891358.72
4.300000000000002e-09,164974.91565303018,-11249155477684.781,303.65957745408195,250932512437299.97
4.400000000000002e-09,172306.2248255348,-11703002051941.84,303.7955498876601,256207093854517.1
4.500000000000002e-09,179816.88601856574,-12168511310139.553,303.9355402171182,261552935820338.44
4.600000000000002e-09,187511.11745583973,-12646160067692.566,304.0796639816115,266977605384187.28
4.700000000000002e-09,195393.4715705294,-13136460991454.488,304.22803917512755,272488939503527.47
4.8000000000000024e-09,203468.8520958379,-13639964798226.262,304.3807863111052,278095072268441.9
4.9000000000000025e-09,211742.53268543677,-14157262653556.697,304.5380284859236,283804463981734.9
5.0000000000000026e-09,220220.17719056792,-14688988789258.63,304.69989144144,289625932277771.3
5.100000000000003e-09,228907.8617336115,-15235823360064.11,304.8665036267297,295568685481319.56
5.200000000000003e-09,237812.09873234617,-15798495562076.486,305.0379962591556,301642358427665.1
5.300000000000003e-09,246939.86304514663,-16377787038177.107,305.2145033848814,307857050987444.44
5.400000000000003e-09,256298.62042516758,-16974535598342.316,305.3961619389233,314223369564283.3
5.500000000000003e-09,265896.3584913704,-17589639285962.227,305.583111804821,320752471860695.56
5.600000000000003e-09,275741.6204463042,-18224060824771.465,305.7754958739993,327456115238154.9
5.700000000000003e-09,285843.54179513734,-18878832484953.195,305.97346010487826,334346709031164.1
5.800000000000003e-09,296211.8903478624,-19555061411420.38,306.1771535817827,341437371212937.2
5.900000000000003e-09,306857.10981722735,-20253935462278.19,306.38672857369306,348741989852457.2
6.000000000000003e-09,317790.3673591864,-20976729611105.375,306.6023405928727,356275289849732.06
6.100000000000003e-09,329023.605440976,-21724812973046.63,306.82414845340054,364052905488631.9
6.200000000000003e-09,340569.59846483695,-22499656521883.64,307.0523143296327,372091459405471.06
6.3000000000000035e-09,352442.01462351927,-23302841573363.957,307.28700381461107,380408648637270.94
6.4000000000000035e-09,364655.48351770756,-24136069119246.06,307.5283859784332,389023338487298.25
6.500000000000004e-09,377225.67012617853,-25001170106920.92,307.7766334265939,397955665028041.9
6.600000000000004e-09,390169.35578773444,-25900116771265.793,308.0319223583043,407227147154406.0
6.700000000000004e-09,403504.52693077526,-26835035138783.266,308.2944326247926,416860809203885.0
6.800000000000004e-09,417250.4723729463,-27808218839309.71,308.5643477875861,426881315277327.56
6.900000000000004e-09,431427.89011096593,-28822144377910.934,308.8418551767727,437315116525295.94
7.000000000000004e-09,446059.0046310432,-29879488039339.414,309.1271459492369,448190612812925.8
7.100000000000004e-09,461167.6958949995,-30983144619964.523,309.420415146863,459538330342798.44
7.200000000000004e-09,476779.64129834995,-32136248207833.21,309.72186175469653,471391117003179.94
7.300000000000004e-09,492922.4720565103,-33342195260962.35,310.0316887590534,483784357420959.94
7.400000000000004e-09,509625.94565667567,-34604670267676.69,310.35010320556194,496756209938023.6
7.500000000000004e-09,526922.136218871,-35927674311462.234,310.6773162571254,510347868000428.2
7.600000000000004e-09,544845.6448437897,-37315556907169.51,311.0135432517874,524603848755948.3
7.700000000000003e-09,563433.8322914678,-38773051526396.71,311.35900376048164,539572312002294.2
7.800000000000002e-09,582727.0766383795,-40305315288564.58,311.7139216446494,555305413021316.0
7.900000000000001e-09,602769.0589067573,-41917973361806.08,312.07852511370066,571859693280345.8
8e-09,623607.0800552753,-43617168695804.984,312.45304678229957,589296513488065.4
8.1e-09,645292.4131721847,-45409617798826.9,312.8377237274499,607682534067627.0
8.199999999999999e-09,667880.6952292531,-47302673375421.695,313.2327975453562,627090248764201.2
8.299999999999998e-09,691432.3633475752,-49304394762000.055,313.63851440803546,647598577849276.6
8.399999999999997e-09,716013.141206274,-51423627237495.18,314.05512511965156,669293528233192.0
8.499999999999997e-09,741694.5820060862,-53670091448914.1,314.48288517254656,692268928765999.5
8.599999999999996e-09,768554.6752978693,-56054484380645.67,314.92205480293836,716627250112614.8
8.699999999999995e-09,796678.5260199955,-58588593516547.16,315.3728990462554,742480519851955.2
8.799999999999994e-09,826159.1152803736,-61285426100526.07,315.83568779207866,769951344895282.2
8.899999999999994e-09,857098.1537942459,-64159355701041.02,316.3106958386574,799174054973889.5
8.999999999999993e-09,889607.0404781592,-67226288635372.31,316.79820294696776,830295982842791.5
9.099999999999992e-09,923807.9405391077,-70503853219782.23,317.29849389427955,863478899022378.9
9.199999999999991e-09,959834.9995275232,-74011615292706.11,317.8118585271974,898900621397507.4
9.29999999999999e-09,997835.7122926795,-77771324022867.42,318.33859181414067,936756822863538.0
9.39999999999999e-09,1037972.4686470926,-81807192678205.9,318.87899389722634,977263063510103.5
9.499999999999989e-09,1080424.3008809532,-86146219813281.64,319.4333701435177,1020657077634223.5
9.599999999999988e-09,1125388.862149246,-90818557254579.1,320.0020311956015,1067201350254462.2
9.699999999999988e-09,1173084.669278455,-95857932351489.83,320.5852930214545,1117186022850166.1
9.799999999999987e-09,1223753.6488196573,-101302133247649.81,321.1834769635613,1170932173883026.5
9.899999999999986e-09,1277664.0313443933,-107193567451155.8,321.79690978724227,1228795526399246.8
9.999999999999985e-09,1335113.6461980115,-113579905789207.52,322.4259237281517,1291170642808010.8
1.0099999999999985e-08,1396433.6773812391,-120514825978636.89,323.0708565389047,1358495675959641.2
1.0199999999999984e-08,1461992.9511493733,-128058872595845.45,323.7320515347912,1431257756108592.5
1.0299999999999983e-08,1532202.8375675525,-136280453269131.5,324.4098576385333,1509999105481198.5
1.0399999999999982e-08,1607522.8619594285,-145256994541630.56,325.1046294240442,1595323986256409.5
1.0499999999999982e-08,1688467.1383164998,-155076285183262.62,325.8167271591437,1687906604138959.2
1.059999999999998e-08,1775611.7557521237,-165838039909817.16,326.54651684718596,1788500108745790.5
1.069999999999998e-08,1869603.2715331572,-177655722672320.75,327.2943702675552,1897946854193588.0
1.079999999999998e-08,1971168.4907566062,-190658676123864.94,328.06066501498316,2017190109104224.5
1.0899999999999978e-08,2081125.7441422073,-204994612814582.5,328.8457845376417,2147287435367500.8
1.0999999999999978e-08,2200397.912625443,-220832534426077.38,329.65011817396515,2289425990161633.0
1.1099999999999977e-08,2330027.4915902037,-238366158322360.84,330.4740611881545,2444940046810205.0
1.1199999999999976e-08,2471194.040037393,-257817946339717.44,331.31801480431557,2615331078087332.0
1.1299999999999975e-08,2625234.422385348,-279443849644009.75,332.1823862391845,2802290801796253.0
1.1399999999999975e-08,2793666.3249180904,-303538906363173.6,333.0675887333901,3007727654289738.0
1.1499999999999974e-08,2978215.6175269205,-330443856429747.25,333.97404158120634,3233797234788142.0
1.1599999999999973e-08,3180848.237216951,-360552971718324.8,334.9021701587445,3482937353912241.5
1.1699999999999972e-08,3403807.3963670176,-394323340459049.4,335.85240595053557,3757908426187504.5
1.1799999999999972e-08,3649657.0701716673,-432285894681130.44,336.8251865744539,4061840071244442.5
1.1899999999999971e-08,3921332.899190488,-475058530101393.56,337.82095580493046,4398284935415818.5
1.199999999999997e-08,4222201.860714101,-523361741906710.44,338.8401635944078,4771280918427849.0
1.209999999999997e-08,4556132.324299469,-578037290358203.6,339.8832660929826,5185423193661790.0
1.2199999999999969e-08,4927576.421540635,-640070520873505.9,340.9507256661885,5645947650684041.0
1.2299999999999968e-08,5341667.03913982,-710617098935650.6,342.04301091086614,6158827672134054.0
1.2399999999999967e-08,5804332.201297469,-791035086683789.2,343.1605966690693,6730886491620510.0
1.2499999999999966e-08,6322430.159025448,-882923492628990.8,344.303964039957,7369927774527927.0
1.2599999999999966e-08,6903909.170570295,-988168677644347.2,345.4736003896188,8084887530911218.0
1.2699999999999965e-08,7557996.763605684,-1109000310451572.9,346.6699993587829,8886011022453757.0
1.2799999999999964e-08,8295424.246668461,-1248058948282847.8,347.893660868355,9785058979868272.0
1.2899999999999963e-08,9128693.421760814,-1408477790719749.5,349.1450911227368,1.079554822230259e+16
1.2999999999999963e-08,10072393.887823032,-1593981738728224.8,350.42480261087167,1.1933032689135382e+16
1.3099999999999962e-08,11143581.07195302,-1809007613895817.5,351.7333141049677,1.3215431984283978e+16
1.3199999999999961e-08,12362227.250624133,-2058850288951489.8,353.0711506568452,1.4663415826341796e+16
1.329999999999996e-08,13751760.411275225,-2349840592518008.5,354.4388435918583,1.6300854333364712e+16
1.339999999999996e-08,15339708.959463576,-2689562232221653.0,355.83693050033924,1.8155345895319896e+16
1.3499999999999959e-08,17158474.12618462,-3087116697859105.5,357.2659552265147,2.0258836555496796e+16
1.3599999999999958e-08,19246256.63146116,-3553447244490852.0,358.7264678548423,2.264834740073824e+16
1.3699999999999957e-08,21648169.90794565,-4101735719822129.5,360.2190246937193,2.536682952825789e+16
1.3799999999999956e-08,24417579.221334714,-4747889323903798.0,361.7441882565093,2.846416980856616e+16
1.3899999999999956e-08,27617714.6380787,-5511138539098217.0,363.3025272398415,3.199837501258351e+16
1.3999999999999955e-08,31323616.34963502,-6414772654599758.0,364.8946164991295,3.603696705139001e+16
1.4099999999999954e-08,35624483.81655602,-7487045797189019.0,366.52103702126146,4.065862825065068e+16
1.4199999999999953e-08,40626516.101430714,-8762294501622171.0,368.18237589441264,4.595514294153202e+16
1.4299999999999953e-08,46456350.30515237,-1.0282318030108274e+16,369.8792262749329,5.203369042657908e+16
1.4399999999999952e-08,53265229.057375394,-1.2098085410187802e+16,371.61218735125846,5.9019554848351544e+16
1.4499999999999951e-08,61234057.592915855,-1.4271849171763578e+16,373.3818643048033,6.705932998032566e+16
1.459999999999995e-08,70579547.37578523,-1.6879765869496744e+16,375.1888682677809,7.632471186775213e+16
1.469999999999995e-08,81561688.12745166,-2.001514873939455e+16,377.03381627791043,8.701699004184189e+16
1.4799999999999949e-08,94492845.47811007,-2.3792509600115364e+16,378.9173312299619,9.937236927668661e+16
1.4899999999999948e-08,109748849.77104059,-2.8352587064460188e+16,380.84004182409365,1.1366827922715682e+17
1.499999999999995e-08,127782525.88754648,-3.3868608413837732e+16,382.8025825109376,1.3023085958085773e+17
1.509999999999995e-08,149140218.13923156,-4.055409580936014e+16,384.80559343338905,1.4944384453711107e+17
1.519999999999995e-08,174481993.0282257,-4.867260727862469e+16,386.8497203650552,1.7175911363567443e+17
1.5299999999999952e-08,204606361.87528488,-5.854990343435471e+16,388.9356146453216,1.9770922756347568e+17
1.5399999999999953e-08,240480562.24397248,-7.05891575882683e+16,391.0639331109919,2.27922329198199e+17
1.5499999999999954e-08,283277680.7828684,-8.528998668649078e+16,393.2353380244618,2.6313986374530234e+17
1.5599999999999954e-08,334422201.7784842,-1.0327228197729886e+17,395.4504969983839,3.042376597040274e+17
1.5699999999999955e-08,395645939.26891553,-1.2530607246306326e+17,397.71008291678453,3.522510173138007e+17
1.5799999999999956e-08,469056773.2678803,-1.5234897478008166e+17,400.0147738525925,4.084045763644439e+17
1.5899999999999957e-08,557223183.894504,-1.8559318758678147e+17,402.36525298154106,4.7414788470166624e+17
1.5999999999999958e-08,663278287.5406086,-2.265244987466143e+17,404.7622084924061,5.511977670579829e+17
1.609999999999996e-08,791047959.5469618,-2.7699641718667875e+17,407.2063334935415,6.415888064915081e+17
1.619999999999996e-08,945208719.0001638,-3.393233530723019e+17,409.69832591567626,7.47733504250154e+17
1.629999999999996e-08,1131482403.7567613,-4.163977936191567e+17,412.2388884109389,8.724939860357204e+17
1.639999999999996e-08,1356876340.2717185,-5.118377124897319e+17,414.82872824807123,1.0192674825859116e+18
1.6499999999999962e-08,1629979790.7893012,-6.301720774229809e+17,417.46855720380114,1.1920882410644183e+18
1.6599999999999963e-08,1961330035.8996134,-7.770743703164124e+17,420.15909145033845,1.395749033761599e+18
1.6699999999999964e-08,2363864642.05861,-9.596566152830515e+17,422.901051438962,1.6359460371837059e+18
1.6799999999999965e-08,2853480418.127634,-1.186839659661836e+18,425.69516177966756,1.9194515755753994e+18
1.6899999999999966e-08,3449724463.555883,-1.4698195413455334e+18,428.5421511168442,2.2543200792699366e+18
1.6999999999999967e-08,4176648777.252141,-1.8226549166576655e+18,431.4427520009494,2.650133624676844e+18
1.7099999999999968e-08,5063867406.4739,-2.2630069830938286e+18,434.3977007561549,3.1182946281802e+18
1.719999999999997e-08,6147864409.388698,-2.813071443295391e+18,437.40773734393326,3.672374694711931e+18
1.729999999999997e-08,7473612402.260294,-3.500752235219498e+18,440.4736052225576,4.328530313062529e+18
1.739999999999997e-08,9096575677.889791,-4.361139514419938e+18,443.59605120248887,5.10599809058705e+18
1.749999999999997e-08,11085189449.478716,-5.438370358511315e+18,446.7758252976229,6.027684584101065e+18
1.7599999999999972e-08,13523928471.2547,-6.787970666265184e+18,450.01368057237187,7.120868574617778e+18
1.7699999999999973e-08,16517105067.887596,-8.479801729083502e+18,453.31037298455817,8.418036924602366e+18
1.7799999999999974e-08,20193569637.394222,-1.0601766178463994e+19,456.66666122409123,9.9578790328362e+18
1.7899999999999975e-08,24712527406.451283,-1.3264466962651021e+19,460.0833065474097,1.1786469462483626e+19
1.7999999999999976e-08,30270735359.53822,-1.6607061531189789e+19,463.5610726076611,1.3958673676581282e+19
1.8099999999999977e-08,37111404965.468185,-2.0804613785765773e+19,467.10072528060107,1.6539818103431025e+19
1.8199999999999978e-08,45535212183.59345,-2.607732138620885e+19,470.70303248618825,1.9607673123566965e+19
1.829999999999998e-08,55913909406.85988,-3.2702089108223066e+19,474.3687640058539,2.3254806193739203e+19
1.839999999999998e-08,68707148328.03488,-4.102703432334105e+19,478.0986912954259,2.759137240054723e+19
1.849999999999998e-08,84483262853.66939,-5.148965342238237e+19,481.89358729368877,3.274842149405229e+19
1.859999999999998e-08,103944932773.53925,-6.463955435231749e+19,485.7542262265584,3.888181414856678e+19
1.8699999999999982e-08,127960858733.22794,-8.116687793821596e+19,489.681383406853,4.617685612770271e+19
1.8799999999999983e-08,157604835372.338,-1.0193779847098856e+20,493.6758350296424,5.485377752649418e+19
1.8899999999999984e-08,194203922176.95258,-1.2803882322204366e+20,497.738357963157,6.51742057008768e+19
1.8999999999999985e-08,239397792546.6744,-1.6083201443675662e+20,501.86972953523735,7.744880529720859e+19
1.9099999999999986e-08,295211805060.70575,-2.0202375199966917e+20,506.0707273153112,9.20462874367712e+19
1.9199999999999987e-08,364146904021.3462,-2.5375025959157966e+20,510.34212889187546,1.0940402312346042e+20
1.9299999999999988e-08,449290139454.92175,-3.186838547777308e+20,514.6847116454701,1.300405339191444e+20
1.939999999999999e-08,554450424170.1305,-4.0016478151282085e+20,519.0992525171254,1.5457017652776593e+20
1.949999999999999e-08,684325146120.2898,-5.0236457464627416e+20,523.5865277722685,1.83720387873226e+20
1.959999999999999e-08,844704462484.0012,-6.30488228835989e+20,528.1473127600694,2.1835191434827868e+20
1.969999999999999e-08,1042721558156.2712,-7.910240445404023e+20,532.7823816682159,2.594825140305086e+20
1.9799999999999992e-08,1287158903645.8706,-9.920519553073623e+20,537.492507273095,3.08314694765894e+20
1.9899999999999993e-08,1588822652129.8584,-1.2436234666475357e+21,542.2784606853733,3.662681351524444e+20
1.9999999999999994e-08,1960999838893.0364,-1.5582291313701363e+21,547.1410110909526,4.350175307418814e+20
2.0099999999999995e-08,2420016066202.6055,-1.9513728356696263e+21,552.080925487292,5.1653671542646827e+20
