t(s),Adsorbed H on surface 1 (H m-2),solute flux surface 1 (H m-2 s-1),Total T surface 1 (K),0 value at [0] (H m-3)
1e-08,3361.6842404670156,-3110326268.433742,301.5573755008539,2260509926718000.0
2e-08,11858.38016612069,-7410196811.85972,303.58308866044473,5182305692948400.0
3.0000000000000004e-08,28795.611382787967,-13810796339.881857,306.08396705032095,9174288228144056.0
4e-08,60169.94854837211,-23696270716.76347,308.9650714148894,1.4857969062662988e+16
5e-08,116904.4394418096,-39284143477.95896,312.1659684629705,2.3209928470264172e+16
6e-08,219110.82552349003,-64186469383.19977,315.6434679452736,3.5786157718071896e+16
6.999999999999999e-08,404237.8524422754,-104320462652.9278,319.364573257975,5.508238017313627e+16
7.999999999999999e-08,742696.9495188065,-169394827200.15515,323.3029359811474,8.51138090394254e+16
8.999999999999999e-08,1367869.1328943842,-275341438591.1031,327.43684509654975,1.3234505651714888e+17
9.999999999999998e-08,2533695.0495870486,-448325024623.6207,331.7479873417242,2.071739365590699e+17
1.0999999999999998e-07,4724925.796947802,-731484289432.486,336.2206341558611,3.262838341479823e+17
1.2e-07,8867289.083479384,-1196675388746.0474,340.84108224400063,5.163455024556833e+17
1.3e-07,16725791.30322362,-1966025617580.7578,345.5972536444252,8.197947295267628e+17
1.4e-07,31654156.83061465,-3254018502507.0234,350.4784007483025,1.3037701188165678e+18
1.5000000000000002e-07,59993184.8136888,-5454649739577.41,355.47488299352926,2.0738089300297661e+18
1.6000000000000003e-07,113655463.37108989,-9330090131780.486,360.5779940550062,3.294625263315598e+18
1.7000000000000004e-07,214854053.1032657,-16429448827476.076,365.77982556578,5.221305621946593e+18
1.8000000000000005e-07,404658651.707556,-30025616876307.88,371.07315787542666,8.245640205859594e+18
1.9000000000000006e-07,758297942.1536064,-57201459596065.37,376.4513712203288,1.2964168713645482e+19
2.0000000000000007e-07,1412196088.4790196,-113437397364796.5,381.9083725749814,2.0276975775931675e+19
2.1000000000000008e-07,2611142938.2648306,-232528103497953.3,387.4385347373068,3.15294511550372e+19
2.200000000000001e-07,4789531132.214298,-487603657810259.7,393.0366450909709,4.871326042664991e+19
2.300000000000001e-07,8709420775.624453,-1034777733998427.1,398.69786211725636,7.474776356308943e+19
2.400000000000001e-07,15692037351.951416,-2201889542740265.2,404.41767818251446,1.1386914352319606e+20
2.500000000000001e-07,28000651155.236393,-4665168356251800.0,410.19188745920866,1.721615679930747e+20
2.600000000000001e-07,49465112487.60692,-9793677091954050.0,416.0165580852342,2.5827270287948376e+20
2.700000000000001e-07,86486406631.77617,-2.030721684426243e+16,421.8880078519578,3.843645770246922e+20
2.800000000000001e-07,149629832511.0664,-4.150778926864082e+16,427.8027828530407,5.673597255973105e+20
2.9000000000000014e-07,256116093820.04953,-8.35391648697246e+16,433.75763863529625,8.305510521392308e+20
3.0000000000000015e-07,433661169974.9352,-1.654522158505242e+17,439.749523477903,1.2056510428879501e+21
3.1000000000000016e-07,726311031764.6978,-3.223785289601897e+17,445.77556349320304,1.7353607140367878e+21
3.2000000000000017e-07,1203181006781.4106,-6.17948066883249e+17,451.83304929542015,2.4765396876001343e+21
3.300000000000002e-07,1971358647625.463,-1.165379117616494e+18,457.9194240261236,3.504054764071235e+21
3.400000000000002e-07,3194681224755.0215,-2.1626267095730056e+18,464.0322725595306,4.91537416428251e+21
3.500000000000002e-07,5120672482189.437,-3.949871056104648e+18,470.1693117385706,6.835957592663796e+21
3.600000000000002e-07,8118634903171.678,-7.101805030312832e+18,476.3283815153951,9.425468581782313e+21
3.700000000000002e-07,12732757746295.195,-1.2573056642089708e+19,482.5074368887431,1.2884806517985567e+22
3.800000000000002e-07,19755128240101.523,-2.192313936950431e+19,488.7045405460786,1.7463924044806922e+22
3.9000000000000024e-07,30324730342300.277,-3.76580798370353e+19,494.9178561313202,2.347036542602462e+22
4.0000000000000025e-07,46059886127021.34,-6.373984963922398e+19,501.1456420697869,3.127843844992129e+22
4.1000000000000026e-07,69233142418455.02,-1.0633239606094932e+20,507.3862458910668,4.133892278237544e+22
4.2000000000000027e-07,102999336783210.48,-1.7487478423541367e+20,513.638098998195,5.4189227186251255e+22
4.300000000000003e-07,151689508850387.94,-2.835979217979895e+20,519.8997118380431,7.046394081940038e+22
4.400000000000003e-07,221185486808740.56,-4.536315173578248e+20,526.1696694333764,9.090578069831985e+22
4.500000000000003e-07,319392426106526.3,-7.158820852805606e+20,532.4466272417963,1.1637701451098632e+23
4.600000000000003e-07,456829186350640.2,-1.1148994588996976e+21,538.7293073108642,1.4787149338441691e+23
4.700000000000003e-07,647360638272290.0,-1.7139950258933295e+21,545.0164947022342,1.865276919003179e+23
4.800000000000003e-07,909097700129711.4,-2.601907157171718e+21,551.3070341606655,2.3364280775106764e+23
4.900000000000003e-07,1265497691166234.5,-3.901366399853372e+21,557.5998270064401,2.906885062381646e+23
5.000000000000003e-07,1746701015077459.2,-5.779950614148441e+21,563.8938282320139,3.593285110674195e+23
5.100000000000003e-07,2391146391597264.5,-8.463669246617186e+21,570.188043785745,4.4143828922915424e+23
5.200000000000003e-07,3247512904300139.5,-1.2253760787732708e+22,576.4815280273156,5.391269095264803e+23
5.300000000000003e-07,4377043556757275.5,-1.7547230023509959e+22,582.7733813410075,6.54760959624287e+23
5.400000000000003e-07,5856311426298147.0,-2.4861688291069224e+22,589.0627478943688,7.909901826681766e+23
5.500000000000003e-07,7780495454862743.0,-3.486508543501644e+22,595.3488135310103,9.507742628244185e+23
5.600000000000004e-07,1.0267237893889906e+16,-4.8410928828557036e+22,601.6308037873454,1.1374099676763692e+24
5.700000000000004e-07,1.3461158780771432e+16,-6.657956176175133e+22,607.9079820240374,1.3545576538412317e+24
5.800000000000004e-07,1.7539103773305818e+16,-9.072600592848791e+22,614.1796476637627,1.6062659577832563e+24
5.900000000000004e-07,2.2716199200662716e+16,-1.2253474127560273e+23,620.4451345276516,1.8969933110130335e+24
6.000000000000004e-07,2.9252781000204332e+16,-1.6408157629290986e+23,626.703809263447,2.2316247116156232e+24
6.100000000000004e-07,3.746225058089807e+16,-2.179024218195373e+23,632.9550698590215,2.615481920750564e+24
6.200000000000004e-07,4.771988832341636e+16,-2.8706828359128645e+23,639.198344235435,3.0543249026018316e+24
6.300000000000004e-07,6.047262145598076e+16,-3.752650881762548e+23,645.4330889142055,3.554341865740664e+24
6.400000000000004e-07,7.62496937092068e+16,-4.8687600358728416e+23,651.6587877539018,4.122124683064129e+24
6.500000000000004e-07,9.567411488573989e+16,-6.270626591055054e+23,657.8749507515636,4.764625776162019e+24
6.600000000000005e-07,1.194746739182213e+17,-8.018400669164999e+23,664.0811129048127,5.489091784751847e+24
6.700000000000005e-07,1.484981731963146e+17,-1.0181380845370245e+24,670.2768331308447,6.302968575558241e+24
6.800000000000005e-07,1.8372137891964102e+17,-1.2838399663222765e+24,676.4616932387815,7.213771499393783e+24
6.900000000000005e-07,2.26261976846851e+17,-1.6077860573434583e+24,682.6352969521345,8.228914466029058e+24
7.000000000000005e-07,2.773875723208342e+17,-1.999728241990293e+24,688.7972689783719,9.35549163847174e+24
7.100000000000005e-07,3.385214797613025e+17,-2.4702188192522555e+24,694.9472541228024,1.060000670259892e+25
7.200000000000005e-07,4.1124371951549094e+17,-3.0304167146316236e+24,701.0849164441927,1.1968047169977235e+25
7.300000000000005e-07,4.9728529995187264e+17,-3.691795272042283e+24,707.2099384497176,1.3463905471444736e+25
7.400000000000005e-07,5.985135458628196e+17,-4.4657403861755795e+24,713.3220203270153,1.509015506526575e+25
7.500000000000005e-07,7.1690599405879e+17,-5.363036504987493e+24,719.4208792112686,1.6847198523120763e+25
7.600000000000006e-07,8.545102842721254e+17,-6.393251748951531e+24,725.5062484853826,1.8732815163455075e+25
7.700000000000006e-07,1.0133876112758442e+18,-7.564051875096312e+24,731.5778771114518,2.07417470761272e+25
7.800000000000006e-07,1.1955377567671898e+18,-8.88049443345306e+24,737.6355289918378,2.2865372131073854e+25
7.900000000000006e-07,1.4028045556152259e+18,-1.034437575265139e+25,743.678982358281,2.509151763960345e+25
8.000000000000006e-07,1.6367619043417208e+18,-1.1953719125451928e+25,749.70802918758,2.7404465117824734e+25
8.100000000000006e-07,1.8985820755744412e+18,-1.3702496644196727e+25,755.7224746424571,2.9785182020223597e+25
8.200000000000006e-07,2.188890097941228e+18,-1.558066433689798e+25,761.7221365363255,3.2211789325975818e+25
8.300000000000006e-07,2.5076102045741967e+18,-1.7574558477699862e+25,767.7068448207441,3.4660236923594893e+25
8.400000000000006e-07,2.853812754835072e+18,-1.9667653089323315e+25,773.6764410944276,3.7105118530368152e+25
8.500000000000006e-07,3.225572524456882e+18,-2.184162303732273e+25,779.6307781327446,3.9520524576560755e+25
8.600000000000007e-07,3.6198517680029993e+18,-2.407760575212145e+25,785.5697194367021,4.188081628333213e+25
8.700000000000007e-07,4.032423817908272e+18,-2.635751963322132e+25,791.4931388004725,4.4161215632216505e+25
8.800000000000007e-07,4.45785478379293e+18,-2.8665286734288745e+25,797.4009198965757,4.63381463968792e+25
8.900000000000007e-07,4.889561356919479e+18,-3.0987822790415095e+25,803.2929558778812,4.838932491228034e+25
9.000000000000007e-07,5.319960623017554e+18,-3.331569357131216e+25,809.1691489956393,5.029367184234297e+25
9.100000000000007e-07,5.740721834293616e+18,-3.5643383226032156e+25,815.0294102327991,5.203117866322268e+25
9.200000000000007e-07,6.143119434972664e+18,-3.796916778869316e+25,820.8736589519101,5.3582894878562795e+25
9.300000000000007e-07,6.518471635040445e+18,-4.0294628589921285e+25,826.7018225569427,5.4931188703976925e+25
9.400000000000007e-07,6.858631652107174e+18,-4.262387361564908e+25,832.5138361684026,5.606036996114604e+25
9.500000000000008e-07,7.156483337242191e+18,-4.496256049277866e+25,838.3096423111417,5.6957659042752515e+25
9.600000000000008e-07,7.406384038356617e+18,-4.731683332089769e+25,844.0891906143075,5.761436617493172e+25
9.700000000000007e-07,7.604499112535292e+18,-4.9692294999073045e+25,849.852437522895,5.8027048250177634e+25
9.800000000000006e-07,7.748985679979334e+18,-5.209313243221944e+25,855.5993460203996,5.819837268350113e+25
9.900000000000005e-07,7.840005644499587e+18,-5.452148985276749e+25,861.3298853620903,5.813745858023743e+25
1.0000000000000004e-06,7.879574327392902e+18,-5.697714580792779e+25,867.0440308184509,5.785957618444104e+25
1.0100000000000003e-06,7.871274812654405e+18,-5.94574992633119e+25,872.7417634283572,5.7385230116917904e+25
1.0200000000000002e-06,7.819884005277325e+18,-6.195782190659489e+25,878.4230697615812,5.673878217610275e+25
1.03e-06,7.730961971135068e+18,-6.447169924782723e+25,884.0879416902334,5.5946846298438854e+25
1.04e-06,7.610451975666117e+18,-6.699156945642757e+25,889.736376168773,5.503669676374598e+25
1.05e-06,7.464327658678144e+18,-6.950927552287202e+25,895.3683750222344,5.403488212842983e+25
1.0599999999999998e-06,7.298309749967094e+18,-7.201656680048722e+25,900.9839447423352,5.296615886809726e+25
1.0699999999999997e-06,7.117661046931672e+18,-7.450551158434868e+25,906.5830962911456,5.185277909047704e+25
1.0799999999999996e-06,6.927057328035714e+18,-7.696880581940132e+25,912.1658449120166,5.071410572951046e+25
1.0899999999999995e-06,6.730524470700187e+18,-7.93999802244986e+25,917.7322099474777,4.956649378384563e+25
1.0999999999999994e-06,6.531428239829742e+18,-8.179351819347811e+25,923.282214663826,4.842336497935979e+25
1.1099999999999993e-06,6.332502334546447e+18,-8.414490099194797e+25,928.8158860821452,4.729540828429216e+25
1.1199999999999992e-06,6.135901397107517e+18,-8.64505970139338e+25,934.333254815502,4.619085189598817e+25
1.1299999999999991e-06,5.943267902139853e+18,-8.870801008930823e+25,939.8343549120805,4.511576739516646e+25
1.139999999999999e-06,5.755804442693976e+18,-9.091539939803627e+25,945.3192237040245,4.407438003970489e+25
1.149999999999999e-06,5.574345430335121e+18,-9.307178121242993e+25,950.7879016617693,4.306936917030014e+25
1.1599999999999988e-06,5.399424361390829e+18,-9.517682074874399e+25,956.2404322536534,4.2102149401317245e+25
1.1699999999999988e-06,5.231334467174284e+18,-9.723072087242125e+25,961.6768618106092,4.1173127364572165e+25
1.1799999999999987e-06,5.070181768229506e+18,-9.923411314546422e+25,967.097239395743,4.028193114328065e+25
1.1899999999999986e-06,4.915930357325836e+18,-1.0118795558815793e+26,972.5016166786171,3.942761094779156e+25
1.1999999999999985e-06,4.768440232422041e+18,-1.0309344044988476e+26,977.890047814064,3.8608810579355173e+25
1.2099999999999984e-06,4.627498277849589e+18,-1.049519142066846e+26,983.2625893253587,3.782391009502503e+25
1.2199999999999983e-06,4.492843124430873e+18,-1.0676481094535305e+26,988.6192999915932,3.7071140925108865e+25
1.2299999999999982e-06,4.3641846632093814e+18,-1.0853359931086586e+26,993.9602407390948,3.634867548268113e+25
1.239999999999998e-06,4.241218980549581e+18,-1.1025974235285213e+26,999.285474536744,3.565469396842977e+25
1.249999999999998e-06,4.1236394471827507e+18,-1.11944668963815e+26,1004.595066295046,3.4987431539132455e+25
1.2599999999999979e-06,4.011144642484429e+18,-1.1358975518707459e+26,1009.889082768824,3.4345209230614575e+25
1.2699999999999978e-06,3.903443733879433e+18,-1.1519631348518891e+26,1015.1675924634008,3.372645200393263e+25
1.2799999999999977e-06,3.800259862985482e+18,-1.167655880711586e+26,1020.4306655441443,3.312969705175164e+25
1.2899999999999976e-06,3.70133201740843e+18,-1.182987545673696e+26,1025.6783737492574,3.2553595119552558e+25
1.2999999999999975e-06,3.606415792687425e+18,-1.1979692251546253e+26,1030.9107903056947,3.199690713103366e+25
1.3099999999999974e-06,3.5152833757751373e+18,-1.2126113956106118e+26,1036.1279898480989,3.1458497921492222e+25
1.3199999999999973e-06,3.4277230126304507e+18,-1.2269239643723774e+26,1041.3300483406442,3.09373284259462e+25
1.3299999999999972e-06,3.343538160539396e+18,-1.2409163213972042e+26,1046.5170430016922,3.0432447271753963e+25
1.3399999999999971e-06,3.26254647240236e+18,-1.2545973890873262e+26,1051.689052231153,2.9942982403300236e+25
1.349999999999997e-06,3.1845787162270356e+18,-1.2679756680191297e+26,1056.846155540465,2.9468133120440696e+25
1.359999999999997e-06,3.1094776983605924e+18,-1.2810592776302965e+26,1061.988433485096,2.900716273551353e+25
1.3699999999999968e-06,3.0370972328082647e+18,-1.2938559916980692e+26,1067.115967599482,2.855939193393235e+25
1.3799999999999967e-06,2.9673011801160074e+18,-1.30637326890574e+26,1072.2288403343173,2.812419284754423e+25
1.3899999999999966e-06,2.8999625663559613e+18,-1.3186182790281207e+26,1077.3271349961146,2.7700983805859437e+25
1.3999999999999965e-06,2.8349627843735045e+18,-1.3305979253487596e+26,1082.4109356889594,2.728922470778765e+25
1.4099999999999965e-06,2.772190874406395e+18,-1.3423188639126419e+26,1087.4803272583797,2.6888412947849993e+25
1.4199999999999964e-06,2.7115272527378877e+18,-1.3538337185610393e+26,1092.541165402131,2.649843108441655e+25
1.4299999999999963e-06,2.6528831775028024e+18,-1.365104259051773e+26,1097.587860532047,2.611847982793824e+25
1.4399999999999962e-06,2.5961708374049254e+18,-1.3761323114259595e+26,1102.62028951632,2.574809631137754e+25
1.449999999999996e-06,2.541305917043345e+18,-1.3869232555392636e+26,1107.6385289460052,2.5386899406498635e+25
1.459999999999996e-06,2.4882082604856663e+18,-1.3974828663611995e+26,1112.6426723231834,2.5034537611880534e+25
1.4699999999999959e-06,2.43680190604614e+18,-1.4078168237407418e+26,1117.632815665533,2.469067967096875e+25
1.4799999999999958e-06,2.3870149433282074e+18,-1.417930633010951e+26,1122.609055072809,2.435501224829621e+25
1.4899999999999957e-06,2.338779309926254e+18,-1.4278296194874929e+26,1127.571486247765,2.402723868450785e+25
1.4999999999999956e-06,2.292030568986962e+18,-1.4375189361301623e+26,1132.5202044471062,2.370707791481462e+25
1.5099999999999955e-06,2.2467076860843343e+18,-1.4470035729352707e+26,1137.455304530225,2.3394263441220787e+25
1.5199999999999954e-06,2.2027528142194698e+18,-1.456288365862147e+26,1142.3768810209972,2.3088542359324045e+25
1.5299999999999953e-06,2.1601110908688302e+18,-1.4653780049314507e+26,1147.2850281608587,2.2789674446991116e+25
1.5399999999999952e-06,2.1187304484442547e+18,-1.4742770415189242e+26,1152.1798399490883,2.2497431317439504e+25
1.5499999999999951e-06,2.0785614382236436e+18,-1.4829898949437326e+26,1157.0614101712013,2.2211595635599268e+25
1.559999999999995e-06,2.0395570671870216e+18,-1.491520858453596e+26,1161.9298324175252,2.193196039468346e+25
1.569999999999995e-06,2.001672646927851e+18,-1.4998741046954363e+26,1166.7852000940159,2.1658328249027397e+25
1.5799999999999948e-06,1.9648656537280753e+18,-1.50805369074479e+26,1171.6276064270667,2.1390510898980026e+25
1.5899999999999947e-06,1.9290955988933148e+18,-1.5160635627537262e+26,1176.4571444637156,2.112832852366527e+25
1.5999999999999946e-06,1.8943239084931615e+18,-1.5239075602659109e+26,1181.2739070683465,2.0871609257620934e+25
1.6099999999999945e-06,1.8605138117155827e+18,-1.5315894202388195e+26,1186.0779869167452,2.0620188707583064e+25
1.6199999999999944e-06,1.8276302371121894e+18,-1.539112780806164e+26,1190.8694764881682,2.0373909505971095e+25
1.6299999999999943e-06,1.7956397160766316e+18,-1.5464811848082823e+26,1195.6484680559438,2.013262089791537e+25
1.6399999999999943e-06,1.7645102929595374e+18,-1.553698083113916e+26,1200.4150536770055,1.989617835894581e+25
1.6499999999999942e-06,1.734211441279173e+18,-1.560766837753445e+26,1205.1693251806735,1.9664443240718743e+25
1.659999999999994e-06,1.7047139855374973e+18,-1.567690724880832e+26,1209.9113741569304,1.943728244239794e+25
1.669999999999994e-06,1.67599002819673e+18,-1.5744729375793363e+26,1214.6412919443887,1.9214568105524753e+25
1.6799999999999939e-06,1.6480128814123837e+18,-1.5811165885241123e+26,1219.3591696180974,1.899617733041085e+25
1.6899999999999938e-06,1.620757003155333e+18,-1.5876247125133677e+26,1224.0650979773184,1.8781991912268176e+25
1.6999999999999937e-06,1.5941979373884823e+18,-1.5940002688783223e+26,1228.7591675333604,1.857189809545364e+25
1.7099999999999936e-06,1.5683122579931244e+18,-1.6002461437811938e+26,1233.4414684975523,1.8365786344354137e+25
1.7199999999999935e-06,1.543077516166758e+18,-1.606365152409398e+26,1238.1120907694121,1.816355112957079e+25
1.7299999999999934e-06,1.5184721910381071e+18,-1.6123600410734033e+26,1242.7711239250598,1.7965090728182284e+25
1.7399999999999933e-06,1.4944756432667098e+18,-1.6182334892149045e+26,1247.4186572059132,1.7770307036975502e+25
1.7499999999999932e-06,1.4710680714140255e+18,-1.6239881113313377e+26,1252.0547795076886,1.7579105397631238e+25
1.759999999999993e-06,1.4482304708906506e+18,-1.6296264588222743e+26,1256.6795793697345,1.7391394432940665e+25
1.769999999999993e-06,1.4259445953002417e+18,-1.63515102176267e+26,1261.2931449647094,1.720708589320987e+25
1.779999999999993e-06,1.404192920015275e+18,-1.640564230607529e+26,1265.8955640886172,1.7026094512082108e+25
1.7899999999999928e-06,1.3829586078329196e+18,-1.6458684578321758e+26,1270.486924151206,1.6848337871073794e+25
1.7999999999999927e-06,1.3622254765712868e+18,-1.6510660195119217e+26,1275.067312166735,1.6673736272180216e+25
1.8099999999999926e-06,1.3419779684772076e+18,-1.656159176844685e+26,1279.6368147451137,1.6502212617961216e+25
1.8199999999999925e-06,1.322201121326616e+18,-1.6611501376197344e+26,1284.1955180834084,1.6333692298566313e+25
1.8299999999999924e-06,1.3028805411076726e+18,-1.6660410576355637e+26,1288.74350795772,1.6168103085204014e+25
1.8399999999999923e-06,1.2840023761850222e+18,-1.6708340420696094e+26,1293.2808697154246,1.6005375029600231e+25
1.8499999999999922e-06,1.2655532928511427e+18,-1.6755311468023437e+26,1297.8076882677751,1.5845440369028244e+25
1.8599999999999921e-06,1.2475204521776522e+18,-1.6801343796980752e+26,1302.3240480828601,1.5688233436526085e+25
1.869999999999992e-06,1.2298914880857902e+18,-1.6846457018446166e+26,1306.8300331789098,1.553369057594829e+25
