t(s),Adsorbed H on surface 1 (H m-2),solute flux surface 1 (H m-2 s-1),Total T surface 1 (K),0 value at [0] (H m-3)
1e-10,211.84725289599433,-71327324761.98636,300.0283612489546,8148770074282.479
2e-10,628.9531723170426,-153302197637.46344,300.0435479898547,16037827469524.344
3e-10,1244.7427310655285,-245329286888.339,300.055736601864,23669824799586.906
4e-10,2052.8742747359834,-346952423154.19025,300.066588739343,31054410700091.727
5e-10,3047.25355461611,-457740297636.4821,300.07671908977636,38201454514314.875
6e-10,4222.034387094715,-577282804577.2485,300.0864324883993,45120713495969.94
7e-10,5571.614371996371,-705189297236.0514,300.09590641453497,51821704843008.98
7.999999999999999e-10,7090.62845073228,-841087431456.9114,300.10525555749183,58313650695380.766
8.999999999999999e-10,8773.94147071487,-984622249378.5609,300.1145598046348,64605454762760.5
9.999999999999999e-10,10616.640319555867,-1135455384041.557,300.12387810971717,70705694467036.55
1.1e-09,12614.025927496907,-1293264336574.2844,300.1332560537415,76622621336485.73
1.2e-09,14761.605306093621,-1457741803873.984,300.1427302749111,82364166020508.31
1.3e-09,17055.08372145262,-1628595045638.3428,300.1523312148467,87937945963222.97
1.4000000000000001e-09,19490.35706061805,-1805545284588.865,300.1620849003402,93351274611191.16
1.5000000000000002e-09,22063.504425954503,-1988327136162.5024,300.1720141436878,98611171479967.66
1.6000000000000003e-09,24770.78097760729,-2176688065207.569,300.18213937738665,103724372659304.3
1.7000000000000003e-09,27608.611034661386,-2370387867904.5522,300.19247925056595,108697341488452.7
1.8000000000000004e-09,30573.581439420755,-2569198177522.603,300.20305106537216,113536279226631.98
1.9000000000000005e-09,33662.435185101785,-2772901992855.441,300.21387110298855,118247135603421.31
2.0000000000000005e-09,36872.06530446068,-2981293228327.5483,300.22495487179276,122835619172949.62
2.1000000000000006e-09,40199.50901500715,-3194176284859.409,300.23631729946294,127307207421970.17
2.2000000000000007e-09,43641.942115208774,-3411365640650.5215,300.24797288401055,131667156599823.77
2.3000000000000007e-09,47196.673625273244,-3632685461092.195,300.2599358142322,135920511250726.56
2.400000000000001e-09,50861.140665582185,-3857969227065.085,300.2722200670657,140072113437558.88
2.500000000000001e-09,54632.90356555345,-4087059380913.4272,300.28483948727836,144126611652532.34
2.600000000000001e-09,58509.641195568234,-4319806989420.8296,300.29780785348294,148088469414538.97
2.700000000000001e-09,62489.14651457124,-4556071423142.732,300.31113893345974,151961973556155.0
2.800000000000001e-09,66569.32232600695,-4795720051479.143,300.3248465310358,155751242205537.62
2.900000000000001e-09,70748.17723486874,-5038627952898.477,300.33894452623895,159460232470061.12
3.0000000000000012e-09,75023.82179879509,-5284677639749.358,300.3534469100533,163092747829667.25
3.1000000000000013e-09,79394.4648663353,-5533758797122.517,300.36836781480827,166652445248674.47
3.2000000000000014e-09,83858.41009571753,-5785768035249.8,300.3837215410145,170142842015299.3
3.3000000000000014e-09,88414.0526476773,-6040608654950.505,300.39952258128926,173567322318451.16
3.4000000000000015e-09,93059.87604613973,-6298190425659.325,300.41578564188586,176929143571522.7
3.5000000000000016e-09,97794.44920079074,-6558429375592.137,300.4325256622403,180231442492948.16
3.6000000000000016e-09,102616.42358581645,-6821247593628.441,300.44975783287026,183477240953269.44
3.7000000000000017e-09,107524.53056933617,-7086573042510.622,300.4674976118986,186669451598352.88
3.800000000000002e-09,112517.57888829916,-7354339382981.205,300.48576074042603,189810883258263.56
3.900000000000002e-09,117594.45226385821,-7624485808499.83,300.5045632569359,192904246151126.2
4.000000000000002e-09,122754.10715247387,-7896956890201.821,300.52392151088446,195952156891110.16
4.100000000000002e-09,127995.57062823969,-8171702431779.637,300.5438521756032,198957143309462.0
4.200000000000002e-09,133317.9383921524,-8448677333987.685,300.56437226061934,201921649097287.72
4.300000000000002e-09,138720.37290427965,-8727841468489.892,300.5854991234835,204848038278563.2
4.400000000000002e-09,144202.10163500335,-9009159560787.545,300.6072504811795,207738599521620.4
4.500000000000002e-09,149762.415431737,-9292601081983.191,300.6296444211796,210595550297133.34
4.600000000000002e-09,155400.66699773248,-9578140149153.744,300.65269941219833,213421040890403.66
4.700000000000002e-09,161116.2694798038,-9865755434123.84,300.67643431469145,216217158275529.84
4.8000000000000024e-09,166908.69516200473,-10155430080447.225,300.70086839113776,218985929858832.75
4.9000000000000025e-09,172777.47426250196,-10447151628421.254,300.72602131613786,221729327098709.28
5.0000000000000026e-09,178722.19383108753,-10740911947976.074,300.75191318635746,224449269008890.84
5.100000000000003e-09,184742.49674497324,-11036707179296.889,300.7785645303396,227147625551901.2
5.200000000000003e-09,190838.08080070547,-11334537681054.312,300.80599631820695,229826220929333.38
5.300000000000003e-09,197008.6979002328,-11634407986133.96,300.83422997127064,232486836775402.2
5.400000000000003e-09,203254.15332935096,-11936326764773.473,300.8632873715628,235131215260077.06
5.500000000000003e-09,209574.30512693897,-12240306795030.906,300.8931908713034,237761062107958.72
5.600000000000003e-09,215969.0635435902,-12546364940525.822,300.92396330231423,240378049538932.62
5.700000000000003e-09,222438.39058842976,-12854522135410.262,300.95562798538856,242983819136516.2
5.800000000000003e-09,228982.29966309736,-13164803376544.273,300.9882087396237,245579984649707.94
5.900000000000003e-09,235600.85528206357,-13477237722867.514,301.02172989172465,248168134734056.38
6.000000000000003e-09,242294.1728786352,-13791858301975.564,301.05621628528263,250749835637581.72
6.100000000000003e-09,249062.41869619596,-14108702323927.555,301.09169329003356,253326633837115.75
6.200000000000003e-09,255905.80976441974,-14427811102329.816,301.12818681110065,255900058630570.66
6.3000000000000035e-09,262824.61396038765,-14749230082758.316,301.16572329822253,258471624690601.38
6.4000000000000035e-09,269819.15015473624,-15073008878602.125,301.20432975497005,261042834585098.34
6.500000000000004e-09,276889.7884431647,-15399201314429.496,301.24403374795236,263615181269930.75
6.600000000000004e-09,284036.95046383224,-15727865476998.787,301.28486341601405,266190150559358.4
6.700000000000004e-09,291261.1098013853,-16059063774056.674,301.3268474794224,268769223579541.6
6.800000000000004e-09,298562.7924785697,-16392863001088.787,301.3700152490452,271353879210605.78
6.900000000000004e-09,305942.5775366003,-16729334416210.322,301.41439663551904,273945596522760.84
7.000000000000004e-09,313401.0977056908,-17068553823407.484,301.4600221584057,276545857212030.25
7.100000000000004e-09,320939.04016737896,-17410601664366.256,301.5069229553363,279156148041222.25
7.200000000000004e-09,328557.14741052705,-17755563119150.52,301.55513079114104,281777963291864.9
7.300000000000004e-09,336256.21818312973,-18103528216018.96,301.6046780669626,284412807232935.9
7.400000000000004e-09,344037.10854232544,-18454591950699.37,301.6555978293504,287062196612346.94
7.500000000000004e-09,351900.733005283,-18808854415469.195,301.7079237793338,289727663177286.7
7.600000000000004e-09,359848.0658039216,-19166420938423.09,301.76169028146995,292410756229697.6
7.700000000000003e-09,367880.1422467264,-19527402233343.285,301.8169323728654,295113045223346.4
7.800000000000002e-09,375998.0601912363,-19891914560623.31,301.87368577216483,297836122409161.8
7.900000000000001e-09,384202.98163111764,-20260079899735.49,301.93198688850663,300581605535749.6
8e-09,392496.13440208527,-20632026133772.273,301.9918728304384,303351140612251.1
8.1e-09,400878.8140113089,-21007887246635.9,302.05338141479075,306146404741003.94
8.199999999999999e-09,409352.3855953309,-21387803533496.48,302.116551175503,308969109027774.3
8.299999999999998e-09,417918.2860119421,-21771921825189.09,302.181421372398,311821001577681.3
8.399999999999997e-09,426578.0260719003,-22160395727272.453,302.2480319999003,314703870585306.5
8.499999999999997e-09,435333.19291684916,-22553385874529.117,302.31642379569297,317619547527899.1
8.599999999999996e-09,444185.4525502897,-22951060201747.73,302.38663824930836,320569910471033.7
8.699999999999995e-09,453136.5525289922,-23353594231692.484,302.458717610647,323556887496565.1
8.799999999999994e-09,462188.3248227988,-23761171381236.105,302.5327048984201,326582460263259.8
8.899999999999994e-09,471342.6888513742,-24173983286705.6,302.6086439085088,329648667711052.5
8.999999999999993e-09,480601.654707105,-24592230149573.426,302.6865792222358,332757609920505.1
9.099999999999992e-09,489967.32657403976,-25016121103710.902,302.76655621454245,335911452139718.75
9.199999999999991e-09,499441.9063534993,-25445874605516.426,302.84862106206583,339112428991681.4
9.29999999999999e-09,509027.69750777795,-25881718848329.957,302.9328207511092,342362848875823.5
9.39999999999999e-09,518727.109134204,-26323892202655.598,303.0192030855,345665098578412.8
9.499999999999989e-09,528542.6602827362,-26772643683829.97,303.10781669432833,349021648107341.0
9.599999999999988e-09,538476.9845312507,-27228233448901.87,303.19871103955984,352435055767859.1
9.699999999999988e-09,548532.8348337199,-27690933324624.254,303.2919364235156,355907973496895.5
9.799999999999987e-09,558713.088657613,-28161027368609.234,303.3875439962128,359443152474763.06
9.899999999999986e-09,569020.7534280613,-28638812465855.586,303.4855857625586,363043449034321.1
9.999999999999985e-09,579458.9722976346,-29124598963032.125,303.58611458939066,366711830889026.25
1.0099999999999985e-08,590031.030261986,-29618711343088.324,303.6891842123558,370451383702776.8
1.0199999999999984e-08,600740.3606431321,-30121488942966.965,303.7948492426212,374265318026054.0
1.0299999999999983e-08,611590.5519637777,-30633286717414.98,303.9031651734088,378156976624585.44
1.0399999999999982e-08,622585.3552378515,-31154476052127.758,304.01418838634686,382129842228617.75
1.0499999999999982e-08,633728.6917043303,-31685445629722.883,304.12797615762935,386187545732904.1
1.059999999999998e-08,645024.6610334844,-32226602352322.793,304.2445866639766,390333874879689.06
1.069999999999998e-08,656477.5500369032,-32778372324833.035,304.36407898838854,394572783459333.1
1.079999999999998e-08,668091.8419150668,-33341201903337.234,304.48651312568273,398908401065770.56
1.0899999999999978e-08,679872.2260788336,-33915558813395.613,304.61194998780877,403345043446756.7
1.0999999999999978e-08,691823.608584037,-34501933343429.223,304.74045140893105,407887223491850.75
1.1099999999999977e-08,703951.1232214373,-35100839618806.0,304.87208015027136,412539662904319.25
1.1199999999999976e-08,716260.143307588,-35712816962716.2,305.0068999047029,417307304606655.7
1.1299999999999975e-08,728756.2942257714,-36338431350439.01,305.14497530108713,422195325933212.3
1.1399999999999975e-08,741445.466770055,-36978276964165.01,305.28637190834513,427209152667563.8
1.1499999999999974e-08,754333.8313497516,-37632977856152.4,305.4311562392542,432354473986691.8
1.1599999999999973e-08,767427.8531161695,-38303189728666.414,305.57939575396153,437637258378929.6
1.1699999999999972e-08,780734.308078534,-38989601839885.04,305.7311588632057,443063770607867.2
1.1799999999999972e-08,794260.3002813971,-39692939045757.625,305.8865149312375,448640589800128.4
1.1899999999999971e-08,808013.2801217673,-40413963988681.22,306.04553427843075,454374628741137.2
1.199999999999997e-08,822001.0638906304,-41153479444825.01,306.20828818357415,460273154469726.6
1.209999999999997e-08,836231.8546305413,-41912330842986.68,306.3748488858355,466343810269766.5
1.2199999999999969e-08,850714.2644086144,-42691408969025.17,306.54528958638883,472594639164948.0
1.2299999999999968e-08,865457.3381125666,-43491652871184.14,306.7196844496955,479034109031519.6
1.2399999999999967e-08,880470.5788865623,-44314052983017.45,306.8981086044295,485671139453187.94
1.2499999999999966e-08,895763.9753335275,-45159654482161.81,307.08063814403965,492515130452650.4
1.2599999999999966e-08,911348.0306214413,-46029560904887.51,307.26735012693626,499575993245383.1
1.2699999999999965e-08,927233.7936429462,-46924938038215.76,307.4583225762967,506864183173469.7
1.2799999999999964e-08,943432.8923905701,-47847018113430.79,307.6536344794778,514390734990499.94
1.2899999999999963e-08,959957.5697240061,-48797104327067.375,307.85336578702703,522167300683007.3
1.2999999999999963e-08,976820.7217213949,-49776575717931.47,308.0575974112839,530206190029660.6
1.3099999999999962e-08,994035.9388235236,-50786892431447.58,308.26641122456067,538520414116601.8
1.3199999999999961e-08,1011617.5499984424,-51829601405642.0,308.4798900568946,547123732046067.7
1.329999999999996e-08,1029580.6701743837,-52906342516403.125,308.69811769336195,556030701095901.1
1.339999999999996e-08,1047941.2512112167,-54018855223340.15,308.921178870945,565256730609908.9
1.3499999999999959e-08,1066716.1367052004,-55168985761627.88,309.1491592749422,574818139923447.0
1.3599999999999958e-08,1085923.1209487314,-56358694929729.055,309.3821455349132,584732220655314.6
1.3699999999999957e-08,1105581.0123963656,-57590066527861.305,309.6202252201495,595017303726224.0
1.3799999999999956e-08,1125709.7020209224,-58865316507597.21,309.8634868346618,605692831496058.0
1.3899999999999956e-08,1146330.2369792375,-60186802899093.63,310.1120198116745,616779435447064.9
1.3999999999999955e-08,1167464.9000464971,-61557036589229.85,310.3659145076199,628299019878408.2
1.4099999999999954e-08,1189137.2953214133,-62978693031450.92,310.625262195622,640274852119392.4
1.4199999999999953e-08,1211372.4407522378,-64454624976466.836,310.8901550584623,652731659814596.1
1.4299999999999953e-08,1234196.8680862265,-65987876322231.15,311.16068618101843,665695735884470.9
1.4399999999999952e-08,1257638.7309031885,-67581697191938.53,311.4369495421669,679195051820142.0
1.4499999999999951e-08,1281727.921457782,-69239560360251.805,311.71904000614313,693259380031685.9
1.459999999999995e-08,1306496.1971259024,-70965179160732.8,312.00705331334854,707920426035570.5
1.469999999999995e-08,1331977.3173285923,-72762527021678.81,312.30108607059816,723211971339879.9
1.4799999999999949e-08,1358207.1918932043,-74635858793407.02,312.60123574079995,739170027966013.5
1.4899999999999948e-08,1385224.0419069878,-76589734047706.95,312.9076006320587,755833005633543.2
1.499999999999995e-08,1413068.5742238679,-78629042549897.83,313.22027988619624,773241892731598.2
1.509999999999995e-08,1441784.1709021006,-80759032125946.52,313.5393734666808,791440452306471.9
1.519999999999995e-08,1471417.0949799856,-82985339171704.47,313.8649821459583,810475434412071.8
1.5299999999999952e-08,1502016.71414035,-85314022078818.08,314.1972074921784,830396806298508.2
1.5399999999999953e-08,1533635.743973683,-87751597882639.31,314.53615185530793,851258002055728.4
1.5499999999999954e-08,1566330.5127264003,-90305082471895.31,314.8819183526257,873116193485055.0
1.5599999999999954e-08,1600161.2496167703,-92982034738452.12,315.2346108535917,896032584143255.8
1.5699999999999955e-08,1635192.3990188127,-95790605088738.08,315.5943339640841,920072728693059.9
1.5799999999999956e-08,1671492.9630564936,-98739588786876.14,315.96119300999914,945306879902680.5
1.5899999999999957e-08,1709136.8754196845,-101838484653980.9,316.335294020206,971810365866986.4
1.5999999999999958e-08,1748203.4095127746,-105097559709171.88,316.7167437088533,999664000276770.0
1.609999999999996e-08,1788777.624380161,-108527920406494.56,317.1056494570202,1028954528842623.4
1.619999999999996e-08,1830950.852224104,-112141591199119.12,317.50211929370784,1059775115289097.1
1.629999999999996e-08,1874821.2317441697,-115951601249003.28,317.9062618761656,1092225870676205.0
1.639999999999996e-08,1920494.2919888166,-119972080197941.77,318.31818646954855,1126414430182433.2
1.6499999999999962e-08,1968083.5919243332,-124218364026002.2,318.73800292590084,1162456581900123.2
1.6599999999999963e-08,2017711.4215008032,-128707112147417.33,319.1658216624614,1200476952654670.2
1.6699999999999964e-08,2069509.5706363358,-133456437033924.47,319.60175363928863,1240609756368280.0
1.6799999999999965e-08,2123620.1732576787,-138486047813424.28,320.04591033620005,1282999611052304.0
1.6899999999999966e-08,2180196.634336785,-143817409470112.06,320.49840372902435,1327802431135421.2
1.6999999999999967e-08,2239404.648759378,-149473919473637.62,320.95934626516276,1375186402524673.5
1.7099999999999968e-08,2301423.321864857,-155481103892542.16,321.42885083845744,1425333048559996.0
1.719999999999997e-08,2366446.4026202783,-161866835304766.12,321.9070307633652,1478438395868515.2
1.729999999999997e-08,2434683.641649704,-168661575109502.56,322.39399974843394,1534714250061612.2
1.739999999999997e-08,2506362.2877508523,-175898643174779.12,322.88987186908173,1594389592255705.2
1.749999999999997e-08,2581728.7381129535,-183614518129174.72,323.3947615396764,1657712108548106.2
1.7599999999999972e-08,2661050.359224622,-191849172030158.94,323.90878348491555,1724949865854699.2
1.7699999999999973e-08,2744617.497453004,-200646443622590.1,324.4320527105069,1796393148930550.2
1.7799999999999974e-08,2832745.70051313,-210054454946946.75,324.96468447314913,1872356474963389.0
1.7899999999999975e-08,2925778.1735607353,-220126076676960.78,325.5067942498129,1953180803870533.2
1.7999999999999976e-08,3024088.496468357,-230919448270943.88,326.0584977063249,2039235964361582.8
1.8099999999999977e-08,3128083.6320235194,-242498559822187.06,326.61991066525445,2130923317973464.8
1.8199999999999978e-08,3238207.258364943,-254933903405052.16,327.1911490731052,2228678685665223.2
1.829999999999998e-08,3354943.4629996107,-268303202750499.12,327.7723289668147,2332975564203892.0
1.839999999999998e-08,3478820.840278876,-282692231265734.9,328.36356643956395,2444328662509621.0
1.849999999999998e-08,3610417.0393219977,-298195729758133.5,328.9649776058997,2563297791391028.0
1.859999999999998e-08,3750363.8151360285,-314918436757221.94,329.576678566174,2690492143727404.0
1.8699999999999982e-08,3899352.642177365,-332976246077517.8,330.1987853703045,2826575006184089.0
1.8799999999999983e-08,4058140.9569296236,-352497508260582.4,330.83141398085996,2972268948026691.0
1.8899999999999984e-08,4227559.104345133,-373624494812661.6,331.4746802354761,3128361537580082.5
1.8999999999999985e-08,4408518.072338375,-396515046755877.6,332.1286998086069,3295711642416003.5
1.9099999999999986e-08,4602018.10907148,-421344431983487.9,332.79358817261794,3475256375512052.0
1.9199999999999987e-08,4809158.329695894,-448307439307563.7,333.4694605582275,3668018756475400.0
1.9299999999999988e-08,5031147.432694334,-477620740973214.2,334.15643191430235,3875116164545463.5
1.939999999999999e-08,5269315.661211777,-509525559859021.06,334.85461686701603,4097769668568579.0
1.949999999999999e-08,5525128.16201093,-544290682671475.3,335.56412967837707,4337314328571916.0
1.959999999999999e-08,5800199.914206142,-582215866267099.2,336.2850842041357,4595210574062489.0
1.969999999999999e-08,6096312.422027121,-623635690909155.6,337.0175938510779,4873056775860865.0
1.9799999999999992e-08,6415432.390889129,-668923921912543.8,337.7617715337158,5172603141282956.0
1.9899999999999993e-08,6759732.634396815,-718498449895731.1,338.5177296303849,5495767076957444.0
1.9999999999999994e-08,7131615.492036526,-772826889909699.5,339.28557993875836,5844650179677486.0
2.0099999999999995e-08,7533739.073731026,-832432931243143.2,340.0654336307883,6221557033619941.0
2.0199999999999996e-08,7969046.688726582,-897903542932454.1,340.8574012070873,6629016012229626.0
2.0299999999999996e-08,8440799.863121565,-969897155189419.4,341.66159245076034,7069802305291122.0
2.0399999999999997e-08,8952615.403486565,-1049152954393373.2,342.4781163807004,7546963416451489.0
2.0499999999999998e-08,9508507.024331992,-1136501449316239.5,343.3070812043608,8063847403999448.0
2.06e-08,10112932.125633374,-1232876489248981.2,344.14859427001755,8624134168365999.0
