t(s),Adsorbed H on surface 1 (H m-2),solute flux surface 1 (H m-2 s-1),Total T surface 1 (K),0 value at [0] (H m-3)
1e-08,1869698.0386506754,-1172549684802.334,300.72297020686136,706449065326670.6
2e-08,5502898.941684858,-3666308908313.9775,301.79316791453016,1335712419709625.5
3.0000000000000004e-08,10864453.019992279,-7486655122051.627,303.11347957501164,1906190227828940.2
4e-08,18106311.28211759,-12901779847937.72,304.63378871344514,2478164183019452.5
5e-08,27567525.61548294,-20363649573162.785,306.3219389694561,3104504729416195.5
6e-08,39798693.264986224,-30559035670176.586,308.15488226282974,3836551149193343.0
6.999999999999999e-08,55609555.40578394,-44493282176347.52,310.11496742392734,4728839949838098.0
7.999999999999999e-08,76142712.2409426,-63616296131996.38,312.1880682528467,5843475579629201.0
8.999999999999999e-08,102979610.93256356,-90006398972759.25,314.36252093866665,7254625021908516.0
9.999999999999998e-08,138288144.76652005,-126635148897843.47,316.6284686310185,9053492153119340.0
1.0999999999999998e-07,185024876.17449299,-177746125137225.6,318.97743134474723,1.1354083239993788e+16
1.2e-07,247209422.3417884,-249394055460191.5,321.4020098611605,1.4300072405261392e+16
1.3e-07,330294259.17916435,-350208892690265.94,323.8956739163329,1.8073098614614372e+16
1.4e-07,441660477.18,-492474184280969.5,326.4526058598979,2.290286605630856e+16
1.5000000000000002e-07,591279290.2884579,-693642484008559.5,329.06758220359563,2.907947413655457e+16
1.6000000000000003e-07,792590866.2197664,-978455378551627.8,331.73588187055157,3.696847021906645e+16
1.7000000000000004e-07,1063666923.4643207,-1381895437904175.0,334.45321376619046,4.702919736184499e+16
1.8000000000000005e-07,1428742255.5151274,-1953276445204952.5,337.21565865414055,5.983710097651282e+16
1.9000000000000006e-07,1920223765.3930237,-2761882104637970.5,340.0196218358114,7.611076326471635e+16
2.0000000000000007e-07,2581314753.4356003,-3904698844303460.0,342.8617941332259,9.674455338379184e+16
2.1000000000000008e-07,3469428313.2949734,-5516963620039996.0,345.73911935300544,1.2284791555245394e+17
2.200000000000001e-07,4660608179.016586,-7786472839013424.0,348.64876687966324,1.5579246771675216e+17
2.300000000000001e-07,6255229888.617017,-1.0972885720183038e+16,351.58810837901683,1.972682508872594e+17
2.400000000000001e-07,8385321606.776945,-1.5433618919011594e+16,354.5546978321609,2.4935065466013526e+17
2.500000000000001e-07,11223924589.538025,-2.1658385909125172e+16,357.5462542958877,3.145797484433463e+17
2.600000000000001e-07,14997010601.040798,-3.0315004030970964e+16,360.56064691580497,3.960539710558582e+17
2.700000000000001e-07,19998590471.867455,-4.230979684794576e+16,363.59588181659325,4.975403739843767e+17
2.800000000000001e-07,26609787652.53817,-5.886678518908885e+16,366.6500905687013,6.236038757645741e+17
2.9000000000000014e-07,35322816685.3654,-8.163091594817602e+16,369.7215199885047,7.797582665196541e+17
3.0000000000000015e-07,46771003022.77135,-1.1280185558912016e+17,372.8085230739325,9.726420021360209e+17
3.1000000000000016e-07,61766212013.09376,-1.553064108665804e+17,375.90955091294984,1.2102221460204183e+18
3.2000000000000017e-07,81345326041.1214,-2.1301947111029338e+17,379.0231454303707,1.5020301516031616e+18
3.300000000000002e-07,106827725070.54079,-2.91045536003427e+17,382.14793286095477,1.859433529038842e+18
3.400000000000002e-07,139886092939.5548,-3.9607544405662266e+17,385.28261785487274,2.2959478027698394e+18
3.500000000000002e-07,182633295875.5587,-5.36835895871105e+17,388.4259781363519,2.827593540161486e+18
3.600000000000002e-07,237728567378.53137,-7.246528200769517e+17,391.57685964836145,3.47330361223457e+18
3.700000000000002e-07,308506791792.2201,-9.74153606393976e+17,394.7341721261163,4.255386232115607e+18
3.800000000000002e-07,399135314766.14026,-1.304137777161793e+18,397.89688505038595,5.200049701284793e+18
3.9000000000000024e-07,514803429894.3251,-1.7386508321964114e+18,401.06402393843456,6.337995173744843e+18
4.0000000000000025e-07,661950504770.2998,-2.3083018258401526e+18,404.23466693614154,7.705084119262208e+18
4.1000000000000026e-07,848539624301.3082,-3.05187175991411e+18,407.4079416796728,9.34308752399295e+18
4.2000000000000027e-07,1084384652175.2727,-4.018267137521166e+18,410.58302239913604,1.130052420506597e+19
4.300000000000003e-07,1381539750586.1855,-5.26888104983744e+18,413.7591272401224,1.3633595929934928e+19
4.400000000000003e-07,1754761661221.4783,-6.880432983475076e+18,416.935515781975,1.6407227316368126e+19
4.500000000000003e-07,2222056444316.145,-8.948368153553297e+18,420.1114867341593,1.969621873975245e+19
4.600000000000003e-07,2805323904072.7783,-1.1590907591526982e+19,423.2863757942762,2.35865206859933e+19
4.700000000000003e-07,3531114604170.4434,-1.4953851440674005e+19,426.45955365313233,2.8176638155965616e+19
4.800000000000003e-07,4431516201993.286,-1.92162499178788e+19,429.63042413390684,3.3579173846744687e+19
4.900000000000003e-07,5545187809345.802,-2.4597069157414818e+19,432.79842245386334,3.99225189015604e+19
5.000000000000003e-07,6918563224589.149,-3.136299261702406e+19,435.9630135982797,4.7352700030721606e+19
5.100000000000003e-07,8607246179067.965,-3.983751284104153e+19,439.12369079735004,5.6035391756160336e+19
5.200000000000003e-07,10677623200940.08,-5.041148306749136e+19,442.27997409774645,6.615810241950901e+19
5.300000000000003e-07,13208722322294.484,-6.355531334895342e+19,445.43140902136645,7.793254241480257e+19
5.400000000000003e-07,16294348639521.883,-7.983301142808104e+19,448.57756530451553,9.159718285914214e+19
5.500000000000003e-07,20045530679493.418,-9.991828444950936e+19,451.718035711419,1.0742001259518802e+20
5.600000000000004e-07,24593314620714.59,-1.2461293356546076e+20,454.85243491654035,1.2570150102528803e+20
5.700000000000004e-07,30091946662917.53,-1.5486778944993916e+20,457.98039845068,1.4677777380502426e+20
5.800000000000004e-07,36722487222213.68,-1.918064525044987e+20,461.1015817062861,1.7102400787022076e+20
5.900000000000004e-07,44696903047705.99,-2.3675205266753254e+20,464.21565899781984,1.9885803547054142e+20
6.000000000000004e-07,54262692259188.48,-2.9125761381290482e+20,467.32232267336667,2.3074423327132038e+20
6.100000000000004e-07,65708090470141.836,-3.571397954505043e+20,470.4212822740224,2.6719757792284194e+20
6.200000000000004e-07,79367921116352.55,-4.365168289598076e+20,473.5122637378664,3.0878797281081845e+20
6.300000000000004e-07,95630150480642.86,-5.3185074805258676e+20,476.5950086455966,3.561448124064247e+20
6.400000000000004e-07,114943213796686.34,-6.459942989869629e+20,479.6692735051451,4.099617861596812e+20
6.500000000000004e-07,137824182461174.56,-7.822428794648942e+20,482.73482907279595,4.7100192290578825e+20
6.600000000000005e-07,164867846268999.56,-9.443918599258514e+20,485.79145970852863,5.4010287404692295e+20
6.700000000000005e-07,196756788394411.1,-1.136799642440351e+21,488.8389627634837,6.181824318414459e+20
6.800000000000005e-07,234272534529234.06,-1.3644568099964663e+21,491.8771479976027,7.062442770724935e+20
6.900000000000005e-07,278307861101350.44,-1.6330617118883596e+21,494.90583702564516,8.053839480163513e+20
7.000000000000005e-07,329880350766260.2,-1.9491028182358766e+21,497.92486278991146,9.167950199146367e+20
7.100000000000005e-07,390147286313071.75,-2.319948157292163e+21,500.9340690581279,1.0417754810022919e+21
7.200000000000005e-07,460421976660770.6,-2.75394212182928e+21,503.9333099450508,1.1817342874724207e+21
7.300000000000005e-07,542191610631078.25,-3.260509893985668e+21,506.92244945645615,1.338198075473282e+21
7.400000000000005e-07,637136735540346.9,-3.8502696896865596e+21,509.9013610542691,1.5128180032196274e+21
7.500000000000005e-07,747152458200499.0,-4.53515296195687e+21,512.8699272416694,1.7073766904310648e+21
7.600000000000006e-07,874371465475726.9,-5.328532624615193e+21,515.8280391670953,1.9237952154384303e+21
7.700000000000006e-07,1021188959892376.0,-6.245359261031818e+21,518.7755962461299,2.1641401222593975e+21
7.800000000000006e-07,1190289602691140.0,-7.302305163467429e+21,521.7125058003248,2.4306303805549346e+21
7.900000000000006e-07,1384676551846985.2,-8.517915903109677e+21,524.63868271208,2.725644230440004e+21
8.000000000000006e-07,1607702675617296.0,-9.912768954914461e+21,527.5540490947451,3.051725831420497e+21
8.100000000000006e-07,1863104012711904.2,-1.150963868986098e+22,530.45853397717,3.4115916200439227e+21
8.200000000000006e-07,2155035537748366.5,-1.3333666794895638e+22,533.3520730019719,3.808136263957507e+21
8.300000000000006e-07,2488109274735113.5,-1.5412536881934527e+22,536.2346081368358,4.2444380807497583e+21
8.400000000000006e-07,2867434781317778.5,-1.7776651695828668e+22,539.1060873982042,4.723763768016301e+21
8.500000000000006e-07,3298662001763520.5,-2.0459310921152576e+22,541.9664645867505,5.249572266388213e+21
8.600000000000007e-07,3788026456409365.5,-2.349688711332906e+22,544.8156990340647,5.825517549709153e+21
8.700000000000007e-07,4342396698766318.0,-2.6928996735981845e+22,547.6537553600167,6.455450106168511e+21
8.800000000000007e-07,4969323927804927.0,-3.0798662669911013e+22,550.4806032402884,7.143416841156062e+21
8.900000000000007e-07,5677093591276234.0,-3.5152463868314285e+22,553.2962171835976,7.893659097264634e+21
9.000000000000007e-07,6474778755375360.0,-4.004066706966331e+22,556.1005763181627,8.710608449854535e+21
9.100000000000007e-07,7372294945815366.0,-4.55173346503734e+22,558.8936641869823,9.598879898866731e+21
9.200000000000007e-07,8380456084742613.0,-5.164040181657153e+22,561.675468551526,1.0563262040510277e+22
9.300000000000007e-07,9511031056385738.0,-5.847171541832659e+22,564.4459812034546,1.1608703767942284e+22
9.400000000000007e-07,1.077680033168698e+16,-6.607702575112911e+22,567.2051977840109,1.2740297020603443e+22
9.500000000000008e-07,1.2191611968651768e+16,-7.452592183086539e+22,569.9531176107362,1.3963255080660773e+22
9.600000000000008e-07,1.3770436181600206e+16,-8.389169984712259e+22,572.689743511192,1.528288590600606e+22
9.700000000000007e-07,1.5529417540520826e+16,-9.425115388876898e+22,575.4150816633762,1.670455999724096e+22
9.800000000000006e-07,1.748592372390428e+16,-1.0568427768644451e+23,578.129141442546,1.823367232662516e+22
9.900000000000005e-07,1.9658589608562188e+16,-1.1827386613779457e+23,580.8319352741653,1.987559791635588e+22
1.0000000000000004e-06,2.206735534321363e+16,-1.3210500589845662e+23,583.5234784927213,2.1635640748571865e+22
1.0100000000000003e-06,2.4733496925840308e+16,-1.4726444547310472e+23,586.2037892061535,2.3518975827050647e+22
1.0200000000000002e-06,2.7679647696480012e+16,-1.638398371704148e+23,588.8728881656605,2.5530584397222798e+22
1.03e-06,3.0929809077494804e+16,-1.8191884613292404e+23,591.5307986406606,2.767518257222279e+22
1.04e-06,3.4509348854274236e+16,-2.0158812553705767e+23,594.1775462986859,2.9957143911451828e+22
1.05e-06,3.8444985303954856e+16,-2.2293216206049273e+23,596.8131590900124,3.2380416854442786e+22
1.0599999999999998e-06,4.27647555618795e+16,-2.460320018511888e+23,599.4376671368225,3.4948438321879354e+22
1.0699999999999997e-06,4.749796677879936e+16,-2.709638744337274e+23,602.0511026267226,3.76640452465617e+22
1.0799999999999996e-06,5.267512887841584e+16,-2.9779774006762353e+23,604.6534997104322,4.052938627168123e+22
1.0899999999999995e-06,5.832786808396798e+16,-3.265957947047252e+23,607.2448944034783,4.354583632548627e+22
1.0999999999999994e-06,6.448882084862156e+16,-3.574109754020559e+23,609.825324491733,4.67139172153205e+22
1.1099999999999993e-06,7.119150839515169e+16,-3.902855172036635e+23,612.394829440642,5.003322773744676e+22
1.1199999999999992e-06,7.847019273506528e+16,-4.252496193491425e+23,614.953450307994,5.35023870237769e+22
1.1299999999999991e-06,8.635971577514608e+16,-4.6232028334895446e+23,617.5012296600934,5.711899489241063e+22
1.139999999999999e-06,9.489532389894704e+16,-5.015003871229778e+23,620.0382114911995,6.087961278872178e+22
1.149999999999999e-06,1.0411248119004842e+17,-5.4277805724467884e+23,622.5644411461072,6.477976846028415e+22
1.1599999999999988e-06,1.1404667519209381e+17,-5.8612639477843345e+23,625.079965245743,6.881398678166714e+22
1.1699999999999988e-06,1.2473321972103549e+17,-6.31503598963014e+23,627.5848316156612,7.29758481372569e+22
1.1799999999999987e-06,1.3620705969968952e+17,-6.788535172160715e+23,630.0790892173266,7.72580745140699e+22
1.1899999999999986e-06,1.4850258322006083e+17,-7.281066302328494e+23,632.5627880820783,8.165264201608284e+22
1.1999999999999985e-06,1.616534460121303e+17,-7.79181458445817e+23,635.0359792476687,8.615091698126248e+22
1.2099999999999984e-06,1.756924131830038e+17,-8.319863523638811e+23,637.4987146972805,9.074381138091311e+22
1.2199999999999983e-06,1.906512224835983e+17,-8.864216062023642e+23,639.9510473009298,9.542195184032114e+22
1.2299999999999982e-06,2.0656047248252995e+17,-9.423818137597488e+23,642.3930307591585,1.00175855571236e+23
1.239999999999998e-06,2.2344953792509462e+17,-9.997583696059336e+23,644.8247195489363,1.049961058644992e+23
1.249999999999998e-06,2.4134651329828854e+17,-1.0584420088925432e+24,647.246168871684,1.0987351963612627e+23
1.2599999999999979e-06,2.602781842965826e+17,-1.1183252765057727e+24,649.6574346033399,1.14799299887944e+23
1.2699999999999978e-06,2.8027002558210368e+17,-1.1793048211938708e+24,652.0585732463933,1.197651668177271e+23
1.2799999999999977e-06,3.0134622205050624e+17,-1.2412834223092468e+24,654.449641883812,1.2476346262479707e+23
1.2899999999999976e-06,3.235297098331091e+17,-1.3041716748079477e+24,656.83069813479,1.2978722669166599e+23
1.2999999999999975e-06,3.468422325509542e+17,-1.3678892804878294e+24,659.2018001122527,1.3483023963599268e+23
1.3099999999999974e-06,3.713044079266515e+17,-1.4323659181113018e+24,661.5630063820496,1.3988703656179492e+23
1.3199999999999973e-06,3.9693579976696205e+17,-1.4975416899305178e+24,663.9143759237751,1.4495289154190747e+23
1.3299999999999972e-06,4.237549905376633e+17,-1.563367165223606e+24,666.2559680931577,1.5002377680468535e+23
1.3399999999999971e-06,4.5177965022337894e+17,-1.6298030611034622e+24,668.587842585956,1.5509630118175507e+23
1.349999999999997e-06,4.810265978419606e+17,-1.6968196158938393e+24,670.910059403312,1.6016763304747937e+23
1.359999999999997e-06,5.115118527982616e+17,-1.7643957201415858e+24,673.2226788185028,1.65235413235506e+23
1.3699999999999968e-06,5.4325067414513626e+17,-1.8325178747510504e+24,675.5257613450423,1.7029766328361167e+23
1.3799999999999967e-06,5.762575867032536e+17,-1.9011790451653668e+24,677.8193677060842,1.7535269389620764e+23
1.3899999999999966e-06,6.105463938180323e+17,-1.9703774757287363e+24,680.1035588050763,1.8039901780589806e+23
1.3999999999999965e-06,6.461301772567468e+17,-2.0401155203344298e+24,682.3783956976233,1.8543527035189426e+23
1.4099999999999965e-06,6.830212853414908e+17,-2.1103985352932576e+24,684.6439395645123,1.904601401629698e+23
1.4199999999999964e-06,7.212313108588849e+17,-2.181233869134025e+24,686.9002516858587,1.9547231141532123e+23
1.4299999999999963e-06,7.607710605834196e+17,-2.2526299727494769e+24,689.1473934163342,2.0047041829500022e+23
1.4399999999999962e-06,8.01650518407451e+17,-2.3245956427322276e+24,691.3854261614341,2.0545301157576757e+23
1.449999999999996e-06,8.438788041046212e+17,-2.3971394014965509e+24,693.6144113547496,2.104185366526545e+23
1.459999999999996e-06,8.874641296874386e+17,-2.4702690102242174e+24,695.8344104362068,2.15365321958051e+23
1.4699999999999959e-06,9.324137551785966e+17,-2.543991104969168e+24,698.0454848312379,2.202915764251836e+23
1.4799999999999958e-06,9.787339454236924e+17,-2.6183109423926053e+24,700.2476959308513,2.251953945370072e+23
1.4899999999999957e-06,1.0264299293524357e+18,-2.69323223942591e+24,702.4411050725674,2.3007476748357544e+23
1.4999999999999956e-06,1.0755058628648147e+18,-2.7687570904280636e+24,704.6257735221902,2.3492759902137397e+23
1.5099999999999955e-06,1.1259647962925179e+18,-2.8448859458202785e+24,706.801762456383,2.3975172475736116e+23
1.5199999999999954e-06,1.1778086471744236e+18,-2.921617637430725e+24,708.9691329460195,2.4454493374414183e+23
1.5299999999999953e-06,1.2310381788944932e+18,-2.998949437569621e+24,711.1279459402836,2.493049914502122e+23
1.5399999999999952e-06,1.285652985563869e+18,-3.076877140917144e+24,713.2782622514897,2.5402966334450716e+23
1.5499999999999951e-06,1.3416514833866947e+18,-3.155395160429926e+24,715.4201425405972,2.5871673849617078e+23
1.559999999999995e-06,1.3990309086295688e+18,-3.2344966304953823e+24,717.5536473033959,2.633640527316245e+23
1.569999999999995e-06,1.4577873222148797e+18,-3.3141735123781424e+24,719.6788368573352,2.6796951100841252e+23
1.5799999999999948e-06,1.5179156208752876e+18,-3.394416698546806e+24,721.7957713289776,2.7253110875860514e+23
1.5899999999999947e-06,1.5794095547369605e+18,-3.4752161137188737e+24,723.9045106420496,2.7704695202558587e+23
1.5999999999999946e-06,1.6422617511398333e+18,-3.556560811422161e+24,726.0051145060727,2.8151527626987978e+23
1.6099999999999945e-06,1.7064637444515261e+18,-3.6384390655680697e+24,728.0976424055499,2.8593446375592377e+23
1.6199999999999944e-06,1.7720060115857244e+18,-3.72083845700326e+24,730.18215358969,2.9030305945621457e+23
1.6299999999999943e-06,1.8388780128943803e+18,-3.803745955293801e+24,732.258707062649,2.946197854254585e+23
1.6399999999999943e-06,1.9070682380652334e+18,-3.887147996142791e+24,734.3273615742698,2.988835536082851e+23
1.6499999999999942e-06,1.9765642566215142e+18,-3.971030554887248e+24,736.3881756113027,3.030934770521402e+23
1.659999999999994e-06,2.0473527725892518e+18,-4.055379216496596e+24,738.4412073890887,3.072488795038837e+23
1.669999999999994e-06,2.1194196828696095e+18,-4.1401792424303844e+24,740.4865148436883,3.1134930337567424e+23
1.6799999999999939e-06,2.19275013882948e+18,-4.225415634627911e+24,742.5241556244414,3.153945160736062e+23
1.6899999999999938e-06,2.267328610603615e+18,-4.311073196811766e+24,744.5541870869389,3.193845146915817e+23
1.6999999999999937e-06,2.343138953586292e+18,-4.3971365932019515e+24,746.5766662863954,3.2331952908323245e+23
1.7099999999999936e-06,2.420164476580281e+18,-4.4835904046622244e+24,748.5916499714046,3.2720002333600096e+23
1.7199999999999935e-06,2.4983880110659476e+18,-4.5704191822396975e+24,750.5991945780644,3.310266956836592e+23
1.7299999999999934e-06,2.5777919810539264e+18,-4.657607498013499e+24,752.5993562244591,3.348004769061068e+23
1.7399999999999933e-06,2.658358472990877e+18,-4.745139993137327e+24,754.5921907054843,3.3852252727791395e+23
1.7499999999999932e-06,2.740069305199439e+18,-4.833001422944122e+24,756.5777534880016,3.4219423213940076e+23
1.759999999999993e-06,2.822906096350322e+18,-4.921176698975815e+24,758.5560997063119,3.458171961757227e+23
1.769999999999993e-06,2.9068503324863165e+18,-5.009650927806204e+24,760.527284157934,3.493932365001547e+23
1.779999999999993e-06,2.991883432144376e+18,-5.09840944653842e+24,762.4913612996785,3.529243746473002e+23
1.7899999999999928e-06,3.0779868091524833e+18,-5.187437854877743e+24,764.4483852440045,3.564128275901086e+23
1.7999999999999927e-06,3.165141932712078e+18,-5.27672204370525e+24,766.3984097556496,3.5986099790118334e+23
1.8099999999999926e-06,3.253330384413933e+18,-5.366248220105128e+24,768.3414882485221,3.6327146318386294e+23
1.8199999999999925e-06,3.342533911874874e+18,-5.456002928828381e+24,770.277673782845,3.666469649018752e+23
1.8299999999999924e-06,3.4327344787239634e+18,-5.545973070206069e+24,772.2070190625442,3.699903967380025e+23
1.8399999999999923e-06,3.523914310709203e+18,-5.636145914555784e+24,774.1295764328685,3.73304792612215e+23
1.8499999999999922e-06,3.6160559377386885e+18,-5.726509113154609e+24,776.0453978782352,3.765933144881431e+23
1.8599999999999921e-06,3.7091422317130394e+18,-5.817050705879943e+24,777.9545350202909,3.798592400937502e+23
1.869999999999992e-06,3.803156440048122e+18,-5.907759125645731e+24,779.8570391161795,3.831059506776531e+23
1.879999999999992e-06,3.8980822148281764e+18,-5.998623199784874e+24,781.7529610570102,3.863369189169468e+23
