t(s),Adsorbed H on surface 1 (H m-2),solute flux surface 1 (H m-2 s-1),Total T surface 1 (K),0 value at [0] (H m-3)
1e-06,535462679.6610502,-33592510806739.945,300.2703375712347,2046874019312311.0
2.05e-06,1684451784.7496839,-371867117279599.4,300.69546288355804,4137543865858907.5
3.1525e-06,3388330749.3723855,-705721240668145.0,301.25234705096665,5760757643250384.0
4.310125e-06,5721346123.613725,-1055692096192807.6,301.93279983134914,7382928932873988.0
5.52563125e-06,8804647012.645275,-1441950426461757.8,302.7340659521104,9105459739017572.0
6.8019128125e-06,12813264656.904434,-1886234168933946.8,303.65604905146097,1.1014936557182798e+16
8.142008453125e-06,17992256782.819256,-2414637985865086.0,304.7001741657247,1.3202878622894774e+16
9.54910887578125e-06,24682144827.21619,-3060728391535630.5,305.86882172292434,1.5776614005567146e+16
1.1026564319570314e-05,33357333038.016518,-3869559183142188.5,307.16500534201117,1.8870290738032624e+16
1.2577892535548829e-05,44683664174.6518,-4903289517381673.0,308.59216783130444,2.2658106052848264e+16
1.4206787162326272e-05,59604931271.63669,-6249378210008999.0,310.154039625686,2.7371734607370116e+16
1.5917126520442588e-05,79473921249.73334,-8032811403730703.0,311.85453214234803,3.3324386789897892e+16
1.771298284646472e-05,106252790831.32352,-1.0434619893723908e+16,313.69765135440434,4.0944825493906536e+16
1.9598631988787957e-05,142822536803.45126,-1.3720238701035296e+16,315.6874232646426,5.082612942523357e+16
2.1578563588227356e-05,193465808114.14536,-1.8283359414295804e+16,317.8278264076782,6.379624210691782e+16
2.3657491767638723e-05,264627685679.54346,-2.471432955592022e+16,320.122728516952,8.102076211273453e+16
2.584036635602066e-05,366126096880.7577,-3.390769559068923e+16,322.57582575359896,1.0415359143924877e+17
2.8132384673821694e-05,513095523572.81885,-4.723254282250477e+16,325.1905837405898,1.355588484267342e+17
3.053900390751278e-05,729135762859.1064,-6.680412873657052e+16,327.97018024237724,1.7863920373238883e+17
3.306595410288842e-05,1051454923784.1904,-9.591968793942131e+16,330.917449762728,2.3832351819949626e+17
3.571925180803284e-05,1539333619036.239,-1.3976139083435978e+17,334.03483064458084,3.2179334854862816e+17
3.850521439843448e-05,2288151248318.6006,-2.0653543155959936e+17,337.3243154712555,4.395679962282714e+17
4.143047511835621e-05,3452771963732.6777,-3.0932475452687014e+17,340.7874057060246,6.071278788250854e+17
4.4501998874274025e-05,5286742859229.593,-4.691111324254857e+17,344.42507158008624,8.473457103074783e+17
4.772709881798773e-05,8208286419108.924,-7.197140883391104e+17,348.2377182612591,1.1941281771594757e+18
5.111345375888712e-05,12911791257085.926,-1.1158699674050316e+18,352.2251593183529,1.697867291119285e+18
5.4669126446831475e-05,20556645671179.25,-1.7464461459194836e+18,356.3865984479719,2.4335880627329766e+18
5.8402582769173055e-05,33087551136768.844,-2.756027902493641e+18,360.72062035928167,3.513095158387673e+18
6.232271190763171e-05,53777769861107.57,-4.3800146591691817e+18,365.22519162205805,5.102934132703759e+18
6.64388475030133e-05,88150967732373.0,-7.001833066108672e+18,369.89767217180315,7.451174136301007e+18
7.076078987816397e-05,145540337348196.72,-1.124490211814119e+19,374.73483803496396,1.0926316179190675e+19
7.529882937207217e-05,241717063112427.8,-1.8120007774398396e+19,379.7329156791847,1.6073924033383641e+19
8.006377084067578e-05,403295061067652.0,-2.9258179292276265e+19,384.88762820522646,2.3697298244042502e+19
8.506695938270958e-05,675045452516859.6,-4.727187339912465e+19,390.1942533729167,3.4969337089745613e+19
9.032030735184505e-05,1131871869681072.5,-7.629821489220116e+19,395.64769319027255,5.1580211260178874e+19
9.583632271943731e-05,1897976906519055.8,-1.2277359578426391e+20,401.2425544928707,7.591439336298158e+19
0.00010162813885540918,3176414400520507.5,-1.964320190663657e+20,406.9732396015508,1.1121939759246993e+20
0.00010770954579817965,5291877720432979.0,-3.1133378550538784e+20,412.8340457779903,1.616599907282582e+20
0.00011409502308808864,8746300598600350.0,-4.8632405484559296e+20,418.8192718146177,2.320421471079878e+20
0.00012079977424249307,1.4278447755942126e+16,-7.437795672665366e+20,424.9233297085379,3.2692211215177954e+20
0.00012783976295461773,2.2907315579429976e+16,-1.1055578218314836e+21,431.1408590074003,4.490500606576969e+20
0.00013523175110234862,3.5938398003396976e+16,-1.5870264787920243e+21,437.4668410938607,5.978731481700199e+20
0.00014299333865746606,5.493833917637157e+16,-2.1933957054555252e+21,443.89671042998907,7.695396452848556e+20
0.00015114300559033938,8.17223201228895e+16,-2.922596187540429e+21,450.4264596323139,9.590276431431457e+20
0.00015970015586985636,1.1840044585293744e+17,-3.772930486220538e+21,457.05273522193403,1.1628735488791508e+21
0.0001686851636633492,1.674836461119083e+17,-4.748813933488911e+21,463.772921010576,1.3803464991647298e+21
0.00017811942184651667,2.3201228002970762e+17,-5.861130840959305e+21,470.5852063541429,1.6127741970777398e+21
0.00018802539293884252,3.156787037182756e+17,-7.12472991830887e+21,477.4886369401511,1.862345875276174e+21
0.00019802539293884252,4.180917291535553e+17,-8.502843056739333e+21,484.22117530487736,2.1216798848964855e+21
0.00020802539293884252,5.4022100624103e+17,-9.984912589004653e+21,490.73448557738953,2.389117162167944e+21
0.00021802539293884252,6.837991681186157e+17,-1.157072783833739e+22,497.0447399759875,2.664715392788944e+21
0.00022802539293884251,8.504879341863858e+17,-1.3260002064183148e+22,503.16685745042076,2.9482533619877177e+21
0.00023802539293884251,1.0418383595395933e+18,-1.5052340372576416e+22,509.1145133498844,3.239319937813074e+21
0.0002480253929388425,1.2592533298314473e+18,-1.6947039387515686e+22,514.9001975191912,3.5374055895352843e+21
0.00025802539293884254,1.503366415517986e+18,-1.889874928716537e+22,520.469610991902,3.8347971375102595e+21
0.00026802539293884257,1.7747465475230415e+18,-2.0915855729116423e+22,525.8585270698007,4.1334522375029344e+21
0.0002780253929388426,2.073918929775985e+18,-2.300772336735384e+22,531.0964051671704,4.4356052487654033e+21
0.0002880253929388426,2.401282854709946e+18,-2.517593742776145e+22,536.1994811571133,4.742621621863524e+21
0.00029802539293884264,2.7571089620021304e+18,-2.7419743476390426e+22,541.1797230463818,5.056078339363601e+21
0.00030802539293884267,3.1415579264281964e+18,-2.9737380359339174e+22,546.0467389915129,5.378059579163754e+21
0.0003180253929388427,3.5547072594466074e+18,-3.2126631328303693e+22,550.8085711435493,5.711288273214726e+21
0.0003280253929388427,3.996579437632476e+18,-3.458510661637216e+22,555.4721216968854,6.059201100964226e+21
0.00033802539293884275,4.4671669736032717e+18,-3.711038612187243e+22,560.0434162890825,6.42601080150666e+21
0.0003480253929388428,4.966451770954104e+18,-3.9700073079132635e+22,564.5277819081914,6.816787490765608e+21
0.0003580253929388428,5.494417551909707e+18,-4.235178798454561e+22,568.9299743288843,7.237587724037913e+21
0.00036802539293884283,6.051055254684248e+18,-4.506312306094966e+22,573.2542732250394,7.695660526464954e+21
0.00037802539293884285,6.636361982549949e+18,-4.78315709999959e+22,577.5045553451016,8.199763898600124e+21
0.0003880253929388429,7.250334326327907e+18,-5.065443506181922e+22,581.6843521547037,8.760635638157182e+21
0.0003980253929388429,7.892956709384012e+18,-5.35287202332525e+22,585.7968961210431,9.391682413469402e+21
0.00040802539293884293,8.564184866655314e+18,-5.645099658791056e+22,589.8451584792726,1.010998704613049e+22
0.00041802539293884296,9.263923673662829e+18,-5.941721502513966e+22,593.8318804732371,1.0937796970669842e+22
0.000428025392938843,9.99199718188037e+18,-6.2422439422573125e+22,597.7595995072461,1.1904767856632505e+22
0.000438025392938843,1.0748106548128262e+19,-6.54604321314474e+22,601.630671266566,1.3051437028513908e+22
0.00044802539293884304,1.153176769850688e+19,-6.852297973042352e+22,605.4472885990197,1.4434777298045168e+22
0.00045802539293884306,1.2342212891540136e+19,-7.159874748544549e+22,609.2114977627265,1.6137416922287384e+22
0.0004680253929388431,1.3178223188827664e+19,-7.467124690495978e+22,612.9252125075997,1.8283616860877797e+22
0.0004780253929388431,1.4037815765685463e+19,-7.771505881536831e+22,616.5902263574262,2.106832677151027e+22
0.00048802539293884314,1.4917585244195439e+19,-8.068847062323894e+22,620.208223384135,2.4812817979190788e+22
0.0004980253929388432,1.581104863349707e+19,-8.351862053736574e+22,623.7807877076126,3.007580029979737e+22
0.0005080253929388432,1.6703040806834096e+19,-8.607374497320764e+22,627.3094119118938,3.786526541245331e+22
0.0005180253929388432,1.754046646371567e+19,-8.816809523901144e+22,630.7955045321108,4.970216951541109e+22
0.0005280253929388432,1.8127032122491935e+19,-9.013125187792952e+22,634.2403967409704,6.427506997522875e+22
0.0005380253929388433,1.8349137153213907e+19,-9.309430630443146e+22,637.6453483419955,7.4955072514631485e+22
0.0005480253929388433,1.8397688049072777e+19,-9.696173788903894e+22,641.011553158625,8.084645505366865e+22
0.0005580253929388433,1.839630147220621e+19,-1.011666425355785e+23,644.3401438949521,8.404939600050723e+22
0.0005680253929388434,1.8381464063768472e+19,-1.0542433613485681e+23,647.632196532723,8.587069882338517e+22
0.0005780253929388434,1.8362322580965999e+19,-1.0963982361340921e+23,650.8887343186551,8.693251719561575e+22
0.0005880253929388434,1.8341334062132417e+19,-1.1379243310848729e+23,654.1107313898915,8.75411263977654e+22
0.0005980253929388434,1.8319306725097282e+19,-1.1788603663868205e+23,657.299116077653,8.785900958165875e+22
0.0006080253929388435,1.829657954404646e+19,-1.2193073601903455e+23,660.4547739245836,8.79787786928936e+22
0.0006180253929388435,1.827332405678987e+19,-1.259366895558875e+23,663.5785504458838,8.795671538684981e+22
0.0006280253929388435,1.8249637242821482e+19,-1.2991237110007662e+23,666.6712536614597,8.782898633053135e+22
0.0006380253929388435,1.8225577106566296e+19,-1.3386435587422137e+23,669.7336564218638,8.761995240775978e+22
0.0006480253929388436,1.8201179025652525e+19,-1.3779756692523001e+23,672.7664985491086,8.734666998345268e+22
0.0006580253929388436,1.817646424866697e+19,-1.417156087014278e+23,675.7704888100538,8.702146318162542e+22
0.0006680253929388436,1.8151444690205714e+19,-1.4562106993876451e+23,678.7463067382864,8.665346857485601e+22
0.0006780253929388436,1.8126125799998753e+19,-1.495157687172161e+23,681.694604319393,8.624960461287748e+22
0.0006880253929388437,1.8100508357779479e+19,-1.5340094204099935e+23,684.6160075510343,8.581520358863963e+22
0.0006980253929388437,1.8074589635332745e+19,-1.5727738991681672e+23,687.5111178903235,8.535443713293774e+22
0.0007080253929388437,1.8048364168530043e+19,-1.611455842254347e+23,690.3805135977185,8.48706106578886e+22
0.0007180253929388437,1.80218242795379e+19,-1.6500575098965577e+23,693.2247509864742,8.43663719530571e+22
0.0007280253929388438,1.7994960433488323e+19,-1.6885793270567716e+23,696.0443655862673,8.384386199725752e+22
0.0007380253929388438,1.7967761482045389e+19,-1.7270203574111085e+23,698.8398732275589,8.330482594341048e+22
0.0007480253929388438,1.794021482741264e+19,-1.76537866516199e+23,701.6117710537045,8.275069607580768e+22
0.0007580253929388439,1.7912306528739031e+19,-1.8036515921609965e+23,704.3605384664899,8.218265467124553e+22
0.0007680253929388439,1.7884021365554858e+19,-1.8418359707164253e+23,707.0866380103276,8.160168220613769e+22
0.0007780253929388439,1.7855342868111006e+19,-1.8799282872738284e+23,709.7905162002608,8.100859471354212e+22
0.0007880253929388439,1.7826253321330797e+19,-1.9179248083240115e+23,712.4726042978112,8.040407299297712e+22
0.000798025392938844,1.7796733746925509e+19,-1.95582167712395e+23,715.1333190389404,7.978868562500634e+22
0.000808025392938844,1.7766763866720141e+19,-1.993614987728617e+23,717.7730633174041,7.916290721945922e+22
0.000818025392938844,1.773632204915537e+19,-2.031300841325679e+23,720.3922268270262,7.852713295852277e+22
0.000828025392938844,1.7705385240133616e+19,-2.0688753887231173e+23,722.991186666129,7.788169023219661e+22
0.0008380253929388441,1.7673928878769922e+19,-2.1063348619369617e+23,725.5703079061099,7.72268479710369e+22
0.0008480253929388441,1.7641926798116794e+19,-2.1436755972514353e+23,728.1299441276635,7.656282414269056e+22
0.0008580253929388441,1.7609351110530144e+19,-2.1808940515440817e+23,730.6704379260859,7.588979177161296e+22
0.0008680253929388441,1.7576172076982305e+19,-2.2179868133530585e+23,733.1921213884217,7.520788376449253e+22
0.0008780253929388442,1.7542357959300968e+19,-2.2549506098145923e+23,735.6953165439048,7.4517196762469e+22
0.0008880253929388442,1.750787485399095e+19,-2.291782310405955e+23,738.1803357898644,7.381779419625522e+22
0.0008980253929388442,1.7472686505975613e+19,-2.3284789282171162e+23,740.6474822945142,7.310970868384367e+22
0.0009080253929388442,1.7436755296692185e+19,-2.36503757518826e+23,743.0970503782423,7.2392963152267935e+22
0.0009180253929388443,1.7400037511697365e+19,-2.401455636389885e+23,745.5293258746873,7.166750325485466e+22
0.0009280253929388443,1.7362489209044148e+19,-2.4377305136014337e+23,747.9445864730599,7.093328411395228e+22
0.0009380253929388443,1.7324062536259965e+19,-2.4738597643685554e+23,750.3431020427523,7.019023346343939e+22
0.0009480253929388443,1.7284705856778193e+19,-2.5098410864068993e+23,752.7251349413623,6.94382506998971e+22
0.0009580253929388444,1.7244363478903927e+19,-2.545672304445035e+23,755.0909403073989,6.867720918776858e+22
0.0009680253929388444,1.7202975270342277e+19,-2.5813513637283164e+23,757.4407663382008,6.790695686196217e+22
0.0009780253929388444,1.7160476209319082e+19,-2.6168763249545655e+23,759.7748545541889,6.712731623633272e+22
0.0009880253929388445,1.7116795878126612e+19,-2.6522453594557456e+23,762.0934400503771,6.633808417929509e+22
0.0009980253929388445,1.7071857894971027e+19,-2.6874567444298205e+23,764.3967517357162,6.55390315758813e+22
0.0010080253929388445,1.702557927722849e+19,-2.722508858213665e+23,766.6850125609888,6.472990293688421e+22
0.0010180253929388445,1.6977869727995677e+19,-2.7574001755960283e+23,768.9584397359478,6.391041600687281e+22
0.0010280253929388446,1.6928630836982606e+19,-2.792129263153134e+23,771.2172449364749,6.30802614290632e+22
0.0010380253929388446,1.6877755186146509e+19,-2.8266947745376782e+23,773.4616345020339,6.223910253774604e+22
0.0010480253929388446,1.682512535004151e+19,-2.8610954456502435e+23,775.6918096241908,6.13865753684542e+22
0.0010580253929388446,1.677061278081469e+19,-2.8953300895689905e+23,777.9079665265651,6.0522289001340575e+22
0.0010680253929388447,1.6714076568341232e+19,-2.9293975910844392e+23,780.1102966367391,5.96458263871469e+22
0.0010780253929388447,1.6655362067505383e+19,-2.963296900639824e+23,782.29898675063,5.875674584892948e+22
0.0010880253929388447,1.6594299387594596e+19,-2.9970270274097663e+23,784.4742191896083,5.785458350876158e+22
0.0010980253929388447,1.6530701743876143e+19,-3.0305870311851095e+23,786.6361719506982,5.693885696003349e+22
0.0011080253929388448,1.6464363679638673e+19,-3.063976012668124e+23,788.7850188505196,5.6009070595489485e+22
0.0011180253929388448,1.6395059179643679e+19,-3.097193101646325e+23,790.9209296629122,5.50647231104957e+22
0.0011280253929388448,1.6322539714804402e+19,-3.1302374424464354e+23,793.0440702509435,5.410531783384371e+22
0.0011380253929388448,1.6246532285315326e+19,-3.1631081759091754e+23,795.1546026932052,5.31303766918955e+22
0.0011480253929388449,1.6166737568246061e+19,-3.195804417054797e+23,797.2526854050327,5.213945878358918e+22
0.001158025392938845,1.608282832916142e+19,-3.228325227495338e+23,799.3384732547239,5.113218471935299e+22
0.001168025392938845,1.5994448329145002e+19,-3.2606695816457566e+23,801.4121176749982,5.010826803293764e+22
0.001178025392938845,1.5901212051626652e+19,-3.2928363259125914e+23,803.4737667700176,4.906755506690045e+22
0.001188025392938845,1.5802705688528466e+19,-3.3248241303825826e+23,805.5235654180923,4.801007468843437e+22
0.001198025392938845,1.5698489958735043e+19,-3.356631433266876e+23,807.5616553703812,4.693609890587693e+22
0.001208025392938845,1.5588105471551388e+19,-3.38825637960268e+23,809.588175345726,4.584621478044456e+22
0.001218025392938845,1.5471081467639702e+19,-3.419696757671391e+23,811.6032611217063,4.4741406784250916e+22
0.001228025392938845,1.534694882437804e+19,-3.4509499393814437e+23,813.6070456223256,4.362314676583952e+22
0.0012380253929388451,1.5215258132898017e+19,-3.482012834343898e+23,815.5996590022936,4.249348584064685e+22
0.0012480253929388451,1.5075603351642284e+19,-3.5128818711817866e+23,817.5812287280542,4.1355138914030365e+22
0.0012580253929388452,1.4927650925678295e+19,-3.54355302273503e+23,819.5518796559086,4.021154861349773e+22
0.0012680253929388452,1.4771173279279581e+19,-3.5740218925865886e+23,821.5117341071202,3.906691210549358e+22
0.0012780253929388452,1.4606084286337722e+19,-3.6042838767952664e+23,823.460911940325,3.792615306993996e+22
0.0012880253929388452,1.4432472904906643e+19,-3.634334405056473e+23,825.3995306212427,3.67948237009096e+22
0.0012980253929388453,1.4250630019488283e+19,-3.6641692496193605e+23,827.3277052898393,3.5678929240308117e+22
0.0013080253929388453,1.4061063175113918e+19,-3.693784870744493e+23,829.2455488251803,3.4584680081088942e+22
0.0013180253929388453,1.3864494749235583e+19,-3.7231787499653225e+23,831.1531719078434,3.35181916294344e+22
0.0013280253929388453,1.3661841309013758e+19,-3.752349654222367e+23,833.0506830801859,3.24851656818099e+22
0.0013380253929388454,1.345417506322507e+19,-3.7812977804125006e+23,834.9381888045511,3.14905943116921e+22
0.0013480253929388454,1.3242671609025366e+19,-3.8100247512992385e+23,836.8157935193076,3.0538525069047765e+22
0.0013580253929388454,1.3028550617602705e+19,-3.83853346403357e+23,838.6835996930067,2.9631914891677484e+22
0.0013680253929388455,1.2813016995396252e+19,-3.8668278217683615e+23,840.5417078768254,2.8772583105369878e+22
0.0013780253929388455,1.2597209258369483e+19,-3.894912397942191e+23,842.3902167548935,2.7961256541977838e+22
0.0013880253929388455,1.2382159791757326e+19,-3.922792087592424e+23,844.2292231934107,2.7197686773335596e+22
0.0013980253929388455,1.216876907786389e+19,-3.95047179168365e+23,846.0588222875535,2.6480813085321356e+22
0.0014080253929388456,1.195779358428151e+19,-3.977956164665856e+23,847.8791074071961,2.5808944883966845e+22
0.0014180253929388456,1.1749845286793388e+19,-4.005249437969284e+23,849.6901702411615,2.517994180414716e+22
0.0014280253929388456,1.1545399908564482e+19,-4.0323553177132616e+23,851.4921008396599,2.459137644726941e+22
0.0014380253929388456,1.1344810792462973e+19,-4.059276945633811e+23,853.2849876557417,2.4040671376903405e+22
0.0014480253929388457,1.1148325660807342e+19,-4.086016907874166e+23,855.0689175851195,2.3525207515602956e+22
0.0014580253929388457,1.0956104112332937e+19,-4.112577275983749e+23,856.8439760049507,2.304240494567511e+22
0.0014680253929388457,1.0768234363584696e+19,-4.138959666401352e+23,858.6102468111617,2.258977938136226e+22
0.0014780253929388457,1.058474833585145e+19,-4.1651653077914645e+23,860.3678124547827,2.216497857944506e+22
0.0014880253929388458,1.0405634659023585e+19,-4.191195108713066e+23,862.116753977006,2.1765803087204255e+22
0.0014980253929388458,1.0230849497180647e+19,-4.217049720898007e+23,863.8571510432226,2.1390215347886468e+22
0.0015080253929388458,1.0060325311597728e+19,-4.242729595556159e+23,865.5890819759766,2.1036340562731513e+22
0.0015180253929388458,9.89397779136572e+18,-4.268235031672935e+23,867.3126237868904,2.070246202400189e+22
0.0015280253929388459,9.731711227953703e+18,-4.2935662162809745e+23,869.0278522077364,2.0387012988919706e+22
0.001538025392938846,9.57342261228549e+18,-4.318723257249456e+23,870.7348417203242,2.0088566609945767e+22
0.001548025392938846,9.419004710141827e+18,-4.343706209489787e+23,872.43366558577,1.9805824988619892e+22
0.001558025392938846,9.268348337270766e+18,-4.368515095512331e+23,874.1243958726687,1.9537608073657815e+22
0.001568025392938846,9.121344017980088e+18,-4.393149921307378e+23,875.8071034845606,1.928284286672823e+22
