t(s),Adsorbed H on surface 1 (H m-2),solute flux surface 1 (H m-2 s-1),Total T surface 1 (K),0 value at [0] (H m-3)
1e-08,2164367.1002426045,-1376805477092.5063,301.73510130680194,796887859920495.8
2e-08,7036030.013536488,-4950362863614.073,304.3038602196073,1680910743806889.0
3.0000000000000004e-08,15684896.418734383,-11925436589278.459,307.47353466206994,2758547827708110.5
4e-08,30278748.672959905,-24980940008758.355,311.1239088538187,4260187821431675.0
5e-08,54899328.42164515,-49434557881640.414,315.1767509420326,6529765897715926.0
6e-08,97081735.65914115,-95889620935559.22,319.5774577749114,1.0108624800060504e+16
6.999999999999999e-08,170648375.20671743,-185619152900625.56,324.2841621697653,1.5865861417090776e+16
7.999999999999999e-08,300869162.79685503,-361452556067365.56,329.2631039598305,2.5203552645634136e+16
8.999999999999999e-08,533771312.5127584,-709625760617766.0,334.4864116589288,4.03785564447312e+16
9.999999999999998e-08,952765330.1953974,-1403208753072598.2,339.93054459580435,6.500152181430442e+16
1.0999999999999998e-07,1708006355.078997,-2787410704464699.5,345.57526153351125,1.0480143091581731e+17
1.2e-07,3067624199.0285826,-5544903804276723.0,351.40290973508945,1.687824518424245e+17
1.3e-07,5505980078.332424,-1.1011501809454436e+16,357.3979163926848,2.709525613867214e+17
1.4e-07,9853720419.21728,-2.1769406074934484e+16,363.54641333235526,4.3287443284279e+17
1.5000000000000002e-07,17549485041.64164,-4.274355597797097e+16,369.8359527551895,6.873834278170647e+17
1.6000000000000003e-07,31056424657.18127,-8.31928955941038e+16,376.25528712081854,1.0839410039990231e+18
1.7000000000000004e-07,54542087174.499054,-1.602633819130047e+17,382.7941954378308,1.696251129979961e+18
1.8000000000000005e-07,94973192524.79129,-3.0521440388083226e+17,389.44334390581486,2.6329698298459525e+18
1.9000000000000006e-07,163854815650.66235,-5.741339927259401e+17,396.1941724968027,4.052591793935932e+18
2.0000000000000007e-07,279956633319.82385,-1.0660470183749288e+18,403.03880146972455,6.18391139458851e+18
2.1000000000000008e-07,473530539000.5659,-1.9529685550500815e+18,409.96995344160933,9.353836578788375e+18
2.200000000000001e-07,792751492606.0244,-3.528895146951732e+18,416.9808877691532,1.4024790366465978e+19
2.300000000000001e-07,1313429170192.0542,-6.288263949560454e+18,424.06534479343384,2.0844471993151545e+19
2.400000000000001e-07,2153469658633.314,-1.1049428692904155e+19,431.21749807611246,3.071137174953291e+19
2.500000000000001e-07,3494148326807.3345,-1.914567529339494e+19,438.43191317681976,4.486014079618941e+19
2.600000000000001e-07,5611028333613.144,-3.271579262590089e+19,445.70351183447957,6.497170618223298e+19
2.700000000000001e-07,8918372672420.398,-5.513887596751364e+19,453.0275406510751,9.331388370614816e+19
2.800000000000001e-07,14032207414483.023,-9.167459633399023e+19,460.39954355609217,1.3291916339542684e+20
2.9000000000000014e-07,21858861208806.844,-1.503912864049221e+20,467.81533746845577,1.8780727448883878e+20
3.0000000000000015e-07,33717913700138.13,-2.4349135241586862e+20,475.27099068074716,2.632612507316312e+20
3.1000000000000016e-07,51511072856795.39,-3.8917540323742266e+20,482.7628035754259,3.661663803116453e+20
3.2000000000000017e-07,77951701413597.64,-6.142273441540061e+20,490.2872913501916,5.05422634396425e+20
3.300000000000002e-07,116873544481185.16,-9.575489044865467e+20,497.8411684835764,6.924417246458068e+20
3.400000000000002e-07,173641779523640.88,-1.4749266027339973e+21,505.4213347153713,9.417405577165273e+20
3.500000000000002e-07,255694854876777.88,-2.2453751168454044e+21,513.0248623518409,1.271643082547489e+21
3.600000000000002e-07,373251733212559.06,-3.3794672408170416e+21,520.6489847345941,1.7051022730589123e+21
3.700000000000002e-07,540226090291740.6,-5.030128963088166e+21,528.2910857357801,2.2706529971185912e+21
3.800000000000002e-07,775396638253532.4,-7.406443173367072e+21,535.9486901619827,3.0035044043977015e+21
3.9000000000000024e-07,1103890822566279.8,-1.0791057680668115e+22,543.6194549656002,3.9467766273387796e+21
4.0000000000000025e-07,1559047259233475.0,-1.5561817117875409e+22,551.301161176241,5.152880131035402e+21
4.1000000000000026e-07,2184729698273418.2,-2.221820914026939e+22,558.9917064762153,6.685025632857699e+21
4.2000000000000027e-07,3038170806041050.5,-3.141309459162189e+22,566.689098353991,8.618836214077622e+21
4.300000000000003e-07,4193425722395497.5,-4.398992118912891e+22,574.3914477777703,1.1044008398058219e+22
4.400000000000003e-07,5745510210285846.0,-6.102511774082298e+22,582.096963338433,1.4065932101626934e+22
4.500000000000003e-07,7815281915378991.0,-8.387451905218273e+22,589.8039458171485,1.7807126372027986e+22
4.600000000000003e-07,1.0555089676165192e+16,-1.1422134390418944e+23,597.5107831381748,2.240827466220475e+22
4.700000000000003e-07,1.4155156953707956e+16,-1.5412130125235332e+23,605.2159456718646,2.8028547814649942e+22
4.800000000000003e-07,1.885057182287699e+16,-2.060377512489671e+23,612.9179818567858,3.4844787842554905e+22
4.900000000000003e-07,2.4928618403207476e+16,-2.728565893661535e+23,620.6155141132574,4.304900488204662e+22
5.000000000000003e-07,3.2735998148185304e+16,-3.5786710967346347e+23,628.3072350235486,5.284354632823712e+22
5.100000000000003e-07,4.268526039269501e+16,-4.646926034120764e+23,635.9919037565697,6.443329194015684e+22
5.200000000000003e-07,5.525951783692555e+16,-5.971547314031296e+23,643.6683427171469,7.801440326215857e+22
5.300000000000003e-07,7.101432437826282e+16,-7.59061334703612e+23,651.335434401965,9.375961807306642e+22
5.400000000000003e-07,9.057553637266114e+16,-9.539207673205043e+23,658.9921184460165,1.118009071931013e+23
5.500000000000003e-07,1.1463218173168562e+17,-1.184607613470966e+24,666.637388844946,1.3221145809341292e+23
5.600000000000004e-07,1.4392391699192678e+17,-1.4530310860315752e+24,674.2702913400597,1.5499014981122328e+23
5.700000000000004e-07,1.7922355353700003e+17,-1.7598790782244048e+24,681.889920953988,1.8005240826563968e+23
5.800000000000004e-07,2.2131620030196858e+17,-2.1045140395478912e+24,689.4954196660814,2.0723092054114533e+23
5.900000000000004e-07,2.7097747291503526e+17,-2.485075554965977e+24,697.0859742175904,2.3628785916136886e+23
6.000000000000004e-07,3.289535093623286e+17,-2.898785369866443e+24,704.6608140375515,2.669370121879398e+23
6.100000000000004e-07,3.9594502401851526e+17,-3.342399144318187e+24,712.2192092810789,2.988711128332888e+23
6.200000000000004e-07,4.725964115272626e+17,-3.812696661109842e+24,719.7604689724648,3.317878964542822e+23
6.300000000000004e-07,5.5948941222255315e+17,-4.306896607215817e+24,727.2839392461204,3.654088905104971e+23
6.400000000000004e-07,6.57139685075482e+17,-4.822912968098542e+24,734.7890016789559,3.994877402579676e+23
6.500000000000004e-07,7.659942113009583e+17,-5.359425146497145e+24,742.2750717083146,4.338084959190934e+23
6.600000000000005e-07,8.864278361483891e+17,-5.915788106940579e+24,749.7415971300405,4.681772275700399e+23
6.700000000000005e-07,1.0187528385186815e+18,-6.492319703201984e+24,757.1954892094539,5.024525212634038e+23
6.800000000000005e-07,1.1631863374500221e+18,-7.088858106995521e+24,764.6287107745928,5.3642302152576826e+23
6.900000000000005e-07,1.319853245014267e+18,-7.705490562467483e+24,772.0406382397075,5.699026179549608e+23
7.000000000000005e-07,1.4887814161831744e+18,-8.342250830088009e+24,779.4308497851913,6.027087226049316e+23
7.100000000000005e-07,1.669898831626879e+18,-8.999017210359865e+24,786.7989576734795,6.346661266169552e+23
7.200000000000005e-07,1.8630342445573038e+18,-9.675467217189558e+24,794.1445967721692,6.656149604265225e+23
7.300000000000005e-07,2.0679219085782382e+18,-1.0371072098003062e+25,801.4674226878744,6.954200298763866e+23
7.400000000000005e-07,2.2842104527974556e+18,-1.108511626067146e+25,808.7671111380812,7.239799027476682e+23
7.500000000000005e-07,2.511475486625426e+18,-1.1816729698214351e+25,816.0433574647841,7.512345393932895e+23
7.600000000000006e-07,2.7492351302791316e+18,-1.2564925319994737e+25,823.2958761166846,7.771706655270771e+23
7.700000000000006e-07,2.996967397269878e+18,-1.332863628678779e+25,830.5244000859645,8.018244508169032e+23
7.800000000000006e-07,3.254128209589375e+18,-1.4106750555171128e+25,837.7286803130839,8.252813735259645e+23
7.900000000000006e-07,3.5201688039044823e+18,-1.489814102676532e+25,844.9084850744393,8.47673421552374e+23
8.000000000000006e-07,3.794551378126885e+18,-1.5701690338732293e+25,852.0635993644548,8.691740031866364e+23
8.100000000000006e-07,4.076762013256084e+18,-1.651630974346655e+25,859.1938242803377,8.899911096290544e+23
8.200000000000006e-07,4.3663201582811356e+18,-1.7340951888660022e+25,866.2989764151456,9.103593766522801e+23
8.300000000000006e-07,4.662784254092045e+18,-1.8174617679881576e+25,873.3788872629495,9.305317292960043e+23
8.400000000000006e-07,4.965753363047993e+18,-1.9016357768762318e+25,880.4334026385608,9.507712626817161e+23
8.500000000000006e-07,5.27486493482992e+18,-1.986526951772465e+25,887.4623821133918,9.713439228035104e+23
8.600000000000007e-07,5.589789053906381e+18,-2.0720490508957236e+25,894.4656984683504,9.92512417936091e+23
8.700000000000007e-07,5.910219665313692e+18,-2.1581189771303357e+25,901.4432371642516,1.0145316315636377e+24
8.800000000000007e-07,6.235863358462054e+18,-2.244655789395469e+25,908.3948958298881,1.0376456394068307e+24
8.900000000000007e-07,6.566426306725756e+18,-2.331579709609976e+25,915.3205837676925,1.0620862725147639e+24
9.000000000000007e-07,6.901599924069991e+18,-2.418811215251052e+25,922.22022147677,1.0880730285551091e+24
9.100000000000007e-07,7.241045724344867e+18,-2.5062702866201283e+25,929.0937401929644,1.1158140230481466e+24
9.200000000000007e-07,7.584379772262438e+18,-2.593875856022454e+25,935.9410814455517,1.1455075949447337e+24
9.300000000000007e-07,7.931157015844402e+18,-2.6815454857311245e+25,942.7621966301175,1.1773441350407399e+24
9.400000000000007e-07,8.280855704661983e+18,-2.7691952848712444e+25,949.5570465971182,1.2115076849666108e+24
9.500000000000008e-07,8.632862039038184e+18,-2.8567400635807987e+25,956.3256012556415,1.248176849121032e+24
9.600000000000008e-07,8.986455170100275e+18,-2.944093716621854e+25,963.0678391918467,1.2875245604433189e+24
9.700000000000007e-07,9.340792681299476e+18,-3.0311698279950204e+25,969.7837473015813,1.3297162322844206e+24
9.800000000000006e-07,9.694896725854038e+18,-3.1178824924044943e+25,976.4733204366688,1.3749058045235034e+24
9.900000000000005e-07,1.0047641064743483e+19,-3.2041473574462798e+25,983.1365610643729,1.4232291492758196e+24
1.0000000000000004e-06,1.0397739337811982e+19,-3.2898829004391973e+25,989.7734789395524,1.4747942444923192e+24
1.0100000000000003e-06,1.0743734999166734e+19,-3.375011963557478e+25,996.3840907890362,1.529667467702657e+24
1.0200000000000002e-06,1.1083993456802458e+19,-3.459463577123685e+25,1002.9684200077614,1.5878553375404856e+24
1.03e-06,1.1416697087871517e+19,-3.543175098945844e+25,1009.526496366225,1.6492810894865034e+24
1.04e-06,1.173984398825838e+19,-3.6260946806828112e+25,1016.058355728833,1.7137556962735974e+24
1.05e-06,1.205125161461882e+19,-3.708184030824067e+25,1022.5640397827232,1.7809434523929502e+24
1.0599999999999998e-06,1.2348566958240545e+19,-3.789421365508017e+25,1029.0435957766663,1.8503231947859103e+24
1.0699999999999997e-06,1.2629285596064301e+19,-3.869804309668195e+25,1035.49707626967,1.9211478032099027e+24
1.0799999999999996e-06,1.2890782829488665e+19,-3.949352323940078e+25,1041.9245388889071,1.992406931641103e+24
1.0899999999999995e-06,1.3130360851394122e+19,-4.028107998570104e+25,1048.3260460966249,2.0628008684085858e+24
1.0999999999999994e-06,1.3345315848475195e+19,-4.10613632591973e+25,1054.7016649656864,2.1307364449505215e+24
1.1099999999999993e-06,1.3533027237721758e+19,-4.183520951051815e+25,1061.0514669634251,2.1943577355713666e+24
1.1199999999999992e-06,1.369106704073044e+19,-4.260356581216874e+25,1067.3755277434977,2.2516229693541463e+24
1.1299999999999991e-06,1.3817320800786555e+19,-4.336737333630436e+25,1073.6739269454329,2.300432365653843e+24
1.139999999999999e-06,1.391010417557918e+19,-4.412741993207316e+25,1079.9467480015908,2.3388000612894822e+24
1.149999999999999e-06,1.39682549893008e+19,-4.488418351704502e+25,1086.1940779512545,2.3650470498157853e+24
1.1599999999999988e-06,1.3991182537389875e+19,-4.563769860028281e+25,1092.4160072615884,2.377981042982516e+24
1.1699999999999988e-06,1.3978865491026696e+19,-4.638747784509563e+25,1098.6126296552125,2.3770261610100884e+24
1.1799999999999987e-06,1.3931803564250935e+19,-4.713250885099597e+25,1104.7840419441407,2.3622759732651228e+24
1.1899999999999986e-06,1.3850940152160612e+19,-4.7871326775371906e+25,1110.9303438698566,2.3344628849064438e+24
1.1999999999999985e-06,1.3737578186844525e+19,-4.8602144503491535e+25,1117.0516379492967,2.294857091255551e+24
1.2099999999999984e-06,1.3593308157472823e+19,-4.932301127447602e+25,1123.148029326526,2.2451213969647642e+24
1.2199999999999983e-06,1.3419958307083287e+19,-5.0031970383315585e+25,1129.219625629899,2.187151050376979e+24
1.2299999999999982e-06,1.3219566916142643e+19,-5.072719402969458e+25,1135.2665368345085,2.1229224943715013e+24
1.239999999999998e-06,1.2994369032143555e+19,-5.1407083588823e+25,1141.2888751297248,2.0543661498324476e+24
1.249999999999998e-06,1.2746786748707496e+19,-5.207033248635918e+25,1147.2867547916492,1.9832699858379933e+24
1.2599999999999979e-06,1.2479413018968568e+19,-5.271595471616115e+25,1153.2602920603003,1.9112146116866753e+24
1.2699999999999978e-06,1.2194982654317326e+19,-5.334328499498324e+25,1159.2096050213634,1.839537078041347e+24
1.2799999999999977e-06,1.1896328849318918e+19,-5.3951957555151525e+25,1165.134813492341,1.7693187974195298e+24
1.2899999999999976e-06,1.1586327738657333e+19,-5.454187052373701e+25,1171.0360389129496,1.701392263901462e+24
1.2999999999999975e-06,1.1267836175490126e+19,-5.511314223252696e+25,1176.913404239608,1.6363611424680716e+24
1.3099999999999974e-06,1.094362885780588e+19,-5.566606485601921e+25,1182.7670338438732,1.5746286348811482e+24
1.3199999999999973e-06,1.0616340405352094e+19,-5.620105959089171e+25,1188.5970534146854,1.5164297217918698e+24
1.3299999999999972e-06,1.028841656798226e+19,-5.671863629537786e+25,1194.4035898642887,1.4618638156120325e+24
1.3399999999999971e-06,9.962077006164367e+18,-5.7219359256988655e+25,1200.1867712376948,1.4109253833383214e+24
1.349999999999997e-06,9.639290457797657e+18,-5.770381969366181e+25,1205.9467266255676,1.3635310631418888e+24
1.359999999999997e-06,9.32176182867418e+18,-5.8172614801466085e+25,1211.6835860804124,1.319542597007705e+24
1.3699999999999968e-06,9.010929887841646e+18,-5.862633265811326e+25,1217.3974805359453,1.2787854874233713e+24
1.3799999999999967e-06,8.707973779860671e+18,-5.906554203975775e+25,1223.088541729542,1.241063663368542e+24
1.3899999999999966e-06,8.413826401325771e+18,-5.949078614607577e+25,1228.7569021276506,1.2061706448492683e+24
1.3999999999999965e-06,8.129192737210682e+18,-5.990257928863965e+25,1234.402694854073,1.1738977724930115e+24
1.4099999999999965e-06,7.854571432457162e+18,-6.0301405723324e+25,1240.0260536210092,1.1440400637252807e+24
1.4199999999999964e-06,7.590278122676624e+18,-6.068771995748865e+25,1245.6271126627728,1.1164002055598236e+24
1.4299999999999963e-06,7.336469320100278e+18,-6.1061948010668e+25,1251.206006672083,1.0907911215259098e+24
1.4399999999999962e-06,7.093165917683121e+18,-6.142448923919812e+25,1256.7628707388476,1.0670374730315679e+24
1.449999999999996e-06,6.860275618086345e+18,-6.1775718444787115e+25,1262.2978402913448,1.0449763828093994e+24
1.459999999999996e-06,6.637613806200933e+18,-6.211598807379364e+25,1267.8110510397314,1.0244576044830143e+24
1.4699999999999959e-06,6.424922560805401e+18,-6.2445630379995724e+25,1273.3026389217875,1.0053433091822469e+24
1.4799999999999958e-06,6.221887643465646e+18,-6.276495947218839e+25,1278.7727400508247,9.875076172697446e+23
1.4899999999999957e-06,6.02815341367355e+18,-6.307427320251191e+25,1284.2214906656886,9.708359695200765e+23
1.4999999999999956e-06,5.843335702389927e+18,-6.337385487521565e+25,1289.6490270827724,9.552244060984557e+23
1.5099999999999955e-06,5.667032735901771e+18,-6.366397477134482e+25,1295.0554856499862,9.405788019836493e+23
1.5199999999999954e-06,5.498834242442228e+18,-6.394489149480289e+25,1300.441002702603,9.268140927614361e+23
1.5299999999999953e-06,5.33832889922413e+18,-6.421685315110868e+25,1305.8057145209289,9.138535138640044e+23
1.5399999999999952e-06,5.185110290792201e+18,-6.448009837322263e+25,1311.149757289721,9.016278684287759e+23
1.5499999999999951e-06,5.038781553769938e+18,-6.473485721001023e+25,1316.4732670593085,8.900748332654563e+23
1.559999999999995e-06,4.898958880523999e+18,-6.498135189291346e+25,1321.7763797083458,8.791383083806397e+23
1.569999999999995e-06,4.765274046895667e+18,-6.521979749569387e+25,1327.0592309081524,8.687678126768224e+23
1.5799999999999948e-06,4.637376118468966e+18,-6.54504025010098e+25,1332.3219560885773,8.589179264860367e+23
1.5899999999999947e-06,4.5149324770466657e+18,-6.567336928631555e+25,1337.5646904053383,8.495477802707809e+23
1.5999999999999946e-06,4.397629295014649e+18,-6.588889454024965e+25,1342.7875687087894,8.40620587945259e+23
1.6099999999999945e-06,4.285171570806416e+18,-6.6097169619399325e+25,1347.9907255140618,8.321032227065087e+23
1.6199999999999944e-06,4.1772828242798474e+18,-6.629838085413054e+25,1353.174294972535,8.239658329235792e+23
1.6299999999999943e-06,4.073704536899325e+18,-6.649270981108215e+25,1358.338410844592,8.161814954466156e+23
1.6399999999999943e-06,3.974195408480295e+18,-6.668033351893864e+25,1363.483206473613,8.087259036199122e+23
1.6499999999999942e-06,3.878530490112374e+18,-6.686142466322237e+25,1368.6088147611674,8.015770872808367e+23
1.659999999999994e-06,3.7865002418682865e+18,-6.7036151755070385e+25,1373.7153681433592,7.947151620777128e+23
1.669999999999994e-06,3.697909554103312e+18,-6.720467927827879e+25,1378.8029985682922,7.881221055282426e+23
1.6799999999999939e-06,3.6125767625754675e+18,-6.736716781829263e+25,1383.8718374746109,7.8178155735473e+23
1.6899999999999938e-06,3.5303326802495795e+18,-6.7523774176289935e+25,1388.922015771081,7.756786417651621e+23
1.6999999999999937e-06,3.4510196624337777e+18,-6.767465147104042e+25,1393.953663817176,7.69799809493833e+23
1.7099999999999936e-06,3.3744907167549133e+18,-6.78199492308113e+25,1398.966911404634,7.64132697566902e+23
1.7199999999999935e-06,3.300608665312038e+18,-6.795981347722965e+25,1403.9618877399485,7.586660049131864e+23
1.7299999999999934e-06,3.229245363046169e+18,-6.8094386802699706e+25,1408.9387214277654,7.533893820953712e+23
1.7399999999999933e-06,3.1602809738174505e+18,-6.822380844269914e+25,1413.897540455151,7.482933335889436e+23
1.7499999999999932e-06,3.093603303775764e+18,-6.834821434404143e+25,1418.8384721767018,7.433691311835369e+23
1.759999999999993e-06,3.029107190240911e+18,-6.846773722998835e+25,1423.7616433004662,7.386087372220089e+23
1.769999999999993e-06,2.966693943374948e+18,-6.8582506662923925e+25,1428.6671798746522,7.340047365254263e+23
1.779999999999993e-06,2.9062708373429693e+18,-6.8692649105151615e+25,1433.5552072750897,7.295502759760631e+23
1.7899999999999928e-06,2.847750647341944e+18,-6.879828797825593e+25,1438.4258501934223,7.252390108450725e+23
1.7999999999999927e-06,2.791051228763376e+18,-6.889954372136385e+25,1443.2792326260048,7.210650570563733e+23
1.8099999999999926e-06,2.736095134789279e+18,-6.899653384855887e+25,1448.1154778634775,7.170229486735197e+23
1.8199999999999925e-06,2.682809268857031e+18,-6.908937300563069e+25,1452.9347084809979,7.131075999821075e+23
1.8299999999999924e-06,2.6311245686314004e+18,-6.917817302628714e+25,1457.737046329102,7.093142716170475e+23
1.8399999999999923e-06,2.58097571836377e+18,-6.9263042987912625e+25,1462.5226125251743,7.056385402523032e+23
1.8499999999999922e-06,2.532300886778685e+18,-6.934408926692101e+25,1467.2915274455079,7.020762714310924e+23
1.8599999999999921e-06,2.485041487891368e+18,-6.9421415593725585e+25,1472.0439107179263,6.986235951676819e+23
