t(s),Adsorbed H on surface 1 (H m-2),solute flux surface 1 (H m-2 s-1),Total T surface 1 (K),0 value at [0] (H m-3)
1e-06,27566793.507186875,-402083413279.6159,300.59702104884667,1.94234015431545e+17
2.05e-06,90934077.3064636,-1031095171521.9745,301.2405958354483,4.1210097352659456e+17
3.1525e-06,202102601.56831267,-1989232136368.5713,302.08404682299533,6.609680422050993e+17
4.310125e-06,378763126.75935733,-3442203233726.1597,303.1148552523256,9.518957057450652e+17
5.52563125e-06,647156170.0029006,-5651818568287.839,304.3289364328297,1.2996501876259924e+18
6.8019128125e-06,1046687745.1008334,-9039026169955.41,305.726260740015,1.724468261990018e+18
8.142008453125e-06,1637460701.2988405,-14293503477212.346,307.3091246298694,2.2546051238178944e+18
9.54910887578125e-06,2512755430.728136,-22568299762302.414,309.08129483683416,2.93010579309691e+18
1.1026564319570314e-05,3820040944.969942,-35832398881665.76,311.0473115500615,3.808434442040535e+18
1.2577892535548829e-05,5796997475.076052,-57524907406236.445,313.2125816045503,4.973016947785687e+18
1.4206787162326272e-05,8834299108.558273,-93793332952592.95,315.583141656202,6.546238048594607e+18
1.5917126520442588e-05,13586707296.085106,-155884023098559.6,318.16519709948676,8.709228081206909e+18
1.771298284646472e-05,21172656667.474762,-264851160784883.88,320.96512534317463,1.1732156167686455e+19
1.9598631988787957e-05,33537761403.149696,-460998258248220.3,323.9893766724986,1.6020657695832134e+19
2.1578563588227356e-05,54125172548.91584,-823112209629375.8,327.2443790434919,2.218704984056804e+19
2.3657491767638723e-05,89125729567.48697,-1508179612212644.0,330.7364486734736,3.115965783254342e+19
2.584036635602066e-05,149832895806.30627,-2834286756192844.0,334.4717046283234,4.435092380324475e+19
2.8132384673821694e-05,257119465260.45483,-5455028217839543.0,338.4559860220973,6.391681029931508e+19
3.053900390751278e-05,450020831189.29724,-1.0728273017351058e+16,342.6947710708824,9.315951305168763e+19
3.306595410288842e-05,802329482297.2749,-2.1497674040756944e+16,347.19309775901405,1.371579799975152e+20
3.571925180803284e-05,1454946202029.0083,-4.374885706619746e+16,351.9554862884621,2.0376447847818887e+20
3.850521439843448e-05,2679472675156.087,-9.011264089168413e+16,356.9858638263564,3.051923286071987e+20
4.143047511835621e-05,5004199017555.1045,-1.8725035641722954e+17,362.2874923687704,4.6055606148363426e+20
4.4501998874274025e-05,9465418816639.074,-3.913518758073254e+17,367.86290081810563,6.999332184670431e+20
4.772709881798773e-05,18111397630130.008,-8.204697477692608e+17,373.7138226344945,1.0708313830069718e+21
5.111345375888712e-05,35016415390092.812,-1.7215004910156042e+18,379.84114066805097,1.6484203845551637e+21
5.4669126446831475e-05,68323954579690.61,-3.6077601195949783e+18,386.24484100068753,2.551612371398585e+21
5.8402582769173055e-05,134361106476772.16,-7.538739476816246e+18,392.9239778094512,3.96815583748832e+21
6.232271190763171e-05,265904262996935.4,-1.5682617789966832e+19,399.8766513890867,6.193511919924269e+21
6.64388475030133e-05,528714829642710.6,-3.2432932171019186e+19,407.1000015183307,9.690558836990787e+21
7.076078987816397e-05,1054425251357500.5,-6.6594538891973755e+19,414.59021830055997,1.5180364979323647e+22
7.529882937207217e-05,2105442820541141.0,-1.3559661544563709e+20,422.34257243561115,2.3778514627410994e+22
8.006377084067578e-05,4201817945745099.5,-2.734704580329073e+20,430.3514665715684,3.7196621764669737e+22
8.506695938270958e-05,8366246166368064.0,-5.4564141087380845e+20,438.61050893610894,5.80333897958122e+22
9.032030735184505e-05,1.6589691244969888e+16,-1.0756046970974171e+21,447.11260985859656,9.01786214983415e+22
9.583632271943731e-05,3.269614570480358e+16,-2.0910531962919953e+21,455.8501010785912,1.3932992134072963e+23
0.00010162813885540918,6.389031549948043e+16,-3.997898969156167e+21,464.814876916203,2.1352689428748733e+23
0.00010770954579817965,1.2335045231202888e+17,-7.481685871455671e+21,473.9985554870315,3.233291167166595e+23
0.00011409502308808864,2.3404897754130858e+17,-1.3595843703063154e+22,483.3926572201927,4.8066176513422655e+23
0.00012079977424249307,4.3302802310610176e+17,-2.3702376696446364e+22,492.98879702984664,6.947538498019804e+23
0.00012783976295461773,7.73409611634731e+17,-3.90630686879648e+22,502.77888565077063,9.650779504713537e+23
0.00013523175110234862,1.320568731413705e+18,-6.014924839927466e+22,512.7553349304869,1.2771943719312338e+24
0.00014299333865746606,2.1424291348131835e+18,-8.634603310600024e+22,522.9112613263334,1.610634015116941e+24
0.00015114300559033938,3.296949251855908e+18,-1.165626361360192e+23,533.2406815328357,1.9551973897637053e+24
0.00015970015586985636,4.812172070630394e+18,-1.5006505793597985e+23,543.7386941017703,2.3184662565530875e+24
0.0001686851636633492,6.643019627023347e+18,-1.8665740037693787e+23,554.4016411418726,2.7164341135021813e+24
0.00017811942184651667,8.602894568481672e+18,-2.264972703463115e+23,565.2272447102337,3.1505633925404566e+24
0.00018802539293884252,1.0332958559782562e+19,-2.7033314803352093e+23,576.2147133290127,3.574943671308286e+24
0.00019802539293884252,1.1409598037462913e+19,-3.181115627909261e+23,586.9471720950147,3.879352327555426e+24
0.00020802539293884252,1.1712477747988996e+19,-3.7089997338280604e+23,597.3464978758601,3.9902661123304743e+24
0.00021802539293884252,1.1384843751051772e+19,-4.2880246181390576e+23,607.4372938620098,3.9213212450925135e+24
0.00022802539293884251,1.0677303350424005e+19,-4.9071646944375774e+23,617.2630940240164,3.7432741542538807e+24
0.00023802539293884251,9.814861963106785e+18,-5.546915860115322e+23,626.8230625701021,3.522607523210783e+24
0.0002480253929388425,8.943146420061296e+18,-6.194343875282392e+23,636.1358741056537,3.301171466521517e+24
0.00025802539293884254,8.136904259199556e+18,-6.826315139285352e+23,645.1143201795122,3.09479837886547e+24
0.00026802539293884257,7.421504114339283e+18,-7.445219873101136e+23,653.8141914913274,2.9127255660963824e+24
0.0002780253929388426,6.79716956956606e+18,-8.055614446917681e+23,662.2819679803106,2.75594703044186e+24
0.0002880253929388426,6.254180609790671e+18,-8.659896614376319e+23,670.5432358099301,2.621527169865687e+24
0.00029802539293884264,5.780383137500145e+18,-9.259672286675187e+23,678.6168106638081,2.5056411840847156e+24
0.00030802539293884267,5.364373653174137e+18,-9.855918425057757e+23,686.5177788472974,2.4047027718315876e+24
0.0003180253929388427,4.996515000012838e+18,-1.044911783911581e+24,694.2587562805292,2.315733700921176e+24
0.0003280253929388427,4.669001969387589e+18,-1.1039411669790788e+24,701.8505612268424,2.2363936812357804e+24
0.00033802539293884275,4.375593717434732e+18,-1.1626731399748964e+24,709.3026279996254,2.1648834033699032e+24
0.0003480253929388428,4.111288684736137e+18,-1.2210892444094416e+24,716.6232852115074,2.0998234867779993e+24
0.0003580253929388428,3.8720415353423647e+18,-1.2791652085804161e+24,723.8199547993501,2.0401488734972043e+24
0.00036802539293884283,3.654542848559242e+18,-1.3368742298707734e+24,730.8993008489169,1.9850275390252177e+24
0.00037802539293884285,3.456054359052525e+18,-1.3941887452905762e+24,737.8673446342004,1.9338009432271123e+24
0.0003880253929388429,3.274286652178413e+18,-1.451081375490929e+24,744.7295558272864,1.885941055340041e+24
0.0003980253929388429,3.1073077152517315e+18,-1.507525441040646e+24,751.4909262628953,1.8410192872632696e+24
0.00040802539293884293,2.953473672080906e+18,-1.5634952615725768e+24,758.1560305433624,1.7986838244930113e+24
0.00041802539293884296,2.8113755656400307e+18,-1.6189663424380458e+24,764.7290764723193,1.7586428781210385e+24
0.000428025392938843,2.679797901726914e+18,-1.6739154989650844e+24,771.2139474706255,1.7206521465169179e+24
0.000438025392938843,2.5576859406083046e+18,-1.728320941902788e+24,777.6142385692992,1.6845053058030562e+24
0.00044802539293884304,2.4441195918560184e+18,-1.7821623352976376e+24,783.9332871870955,1.6500267082729332e+24
0.00045802539293884306,2.3382923625014845e+18,-1.8354208326013468e+24,790.1741996265316,1.617065711717655e+24
0.0004680253929388431,2.2394942214659837e+18,-1.8880790944563066e+24,796.3398740204339,1.5854922287495617e+24
0.0004780253929388431,2.147097533996042e+18,-1.9401212907138824e+24,802.4330203129838,1.5551931996666283e+24
0.00048802539293884314,2.0605454277974835e+18,-1.9915330888260053e+24,808.4561777440356,1.5260697721795248e+24
0.0004980253929388432,1.979342103493199e+18,-2.0423016306239665e+24,814.4117302190853,1.498035027725724e+24
0.0005080253929388432,1.903044713098102e+18,-2.092415499341511e+24,820.3019198772957,1.471012134425805e+24
0.0005180253929388432,1.8312565129797038e+18,-2.1418646786409596e+24,826.1288591163591,1.444932835983953e+24
0.0005280253929388432,1.763621060193027e+18,-2.1906405052552075e+24,831.8945412892904,1.4197362072611488e+24
0.0005380253929388433,1.6998172686598664e+18,-2.2387356166874645e+24,837.6008502526356,1.395367623124967e+24
0.0005480253929388433,1.6395551782909804e+18,-2.286143895262934e+24,843.2495689175191,1.3717778990755382e+24
0.0005580253929388433,1.5825723186089267e+18,-2.3328604096506736e+24,848.8423869311822,1.3489225711277574e+24
0.0005680253929388434,1.5286307738721352e+18,-2.3788813582289917e+24,854.3809075978152,1.3267613088282387e+24
0.0005780253929388434,1.4775136380902313e+18,-2.4242039957229384e+24,859.8666541311426,1.3052573225857558e+24
0.0005880253929388434,1.4290239088362496e+18,-2.468826588383693e+24,865.3010753179395,1.284377046980621e+24
0.0005980253929388434,1.3829815873854876e+18,-2.512748347127223e+24,870.6855506609451,1.2640896895169022e+24
0.0006080253929388435,1.3392220745247378e+18,-2.555969366750332e+24,876.02139506008,1.2443669284116737e+24
0.0006180253929388435,1.2975945946418575e+18,-2.5984905687483335e+24,881.3098630828073,1.2251826383610314e+24
0.0006280253929388435,1.257960803331091e+18,-2.640313645120416e+24,886.5521528677942,1.2065126528682874e+24
0.0006380253929388435,1.2201935584919698e+18,-2.6814410038505355e+24,891.7494097014552,1.1883345579978573e+24
0.0006480253929388436,1.1841758331229837e+18,-2.7218757163147685e+24,896.9027293000157,1.1706275128299955e+24
0.0006580253929388436,1.1497997511384947e+18,-2.761621466800899e+24,902.0131608279304,1.1533720926582819e+24
0.0006680253929388436,1.116965730301365e+18,-2.800682504189351e+24,907.0817096777971,1.136550151603158e+24
0.0006780253929388436,1.0855817186752882e+18,-2.8390635958703926e+24,912.1093400358775,1.1201447018698322e+24
0.0006880253929388437,1.0555625129446428e+18,-2.8767699838764806e+24,917.0969772526544,1.104139807307875e+24
0.0006980253929388437,1.026829148580606e+18,-2.913807343246338e+24,922.0455100373972,1.0885204893104058e+24
0.0007080253929388437,9.993083532129353e+17,-2.9501817425715894e+24,926.9557924922667,1.073272643383472e+24
0.0007180253929388437,9.729320557336751e+17,-2.9858996066942757e+24,931.8286460007309,1.05838296497511e+24
0.0007280253929388438,9.476369446525293e+17,-3.020967681486501e+24,936.6648609827819,1.0438388833579124e+24
0.0007380253929388438,9.233640700687876e+17,-3.055393000656968e+24,941.4651985288597,1.029628502538795e+24
0.0007480253929388438,9.000584843490774e+17,-3.0891828544906454e+24,946.2303919223256,1.0157405483104813e+24
0.0007580253929388439,8.77668917218965e+17,-3.1223447604515585e+24,950.9611480603362,1.0021643206883001e+24
0.0007680253929388439,8.561474815107744e+17,-3.1548864355314356e+24,955.6581487809118,9.888896510722315e+23
0.0007780253929388439,8.354494062679139e+17,-3.186815770250277e+24,960.3220521042728,9.759068635670826e+23
0.0007880253929388439,8.15532794303925e+17,-3.218140804167651e+24,964.953493394745,9.632067399607741e+23
0.000798025392938844,7.963584016567372e+17,-3.2488697027807483e+24,969.5530864499415,9.507804879276489e+23
0.000808025392938844,7.77889436677651e+17,-3.279010735639571e+24,974.1214245224908,9.386197120708273e+23
0.000818025392938844,7.600913767536649e+17,-3.308572255497965e+24,978.6590812793421,9.2671638746318e+23
0.000828025392938844,7.429318008871891e+17,-3.337562678317102e+24,983.1666117038695,9.15062835386345e+23
0.0008380253929388441,7.263802365566339e+17,-3.3659904638677723e+24,987.6445529440564,9.036517009924622e+23
0.0008480253929388441,7.104080194526605e+17,-3.393864096720055e+24,992.0934251117365,8.924759326504868e+23
0.0008580253929388441,6.949881648396618e+17,-3.421192067321815e+24,996.5137320353537,8.815287627542715e+23
0.0008680253929388441,6.800952494247905e+17,-3.4479828529116364e+24,1000.9059619703077,8.70803689800814e+23
0.0008780253929388442,6.657053027372312e+17,-3.4742448979650083e+24,1005.2705882694469,8.602944615631754e+23
0.0008880253929388442,6.517957071260355e+17,-3.499986593882962e+24,1009.6080700163291,8.499950592050182e+23
0.0008980253929388442,6.383451055786482e+17,-3.525216257659969e+24,1013.9188526242048,8.398996822062867e+23
0.0009080253929388442,6.253333166474451e+17,-3.549942109262143e+24,1018.2033684025284,8.30002733986558e+23
0.0009180253929388443,6.127412558462568e+17,-3.5741722475113266e+24,1022.4620370935588,8.202988081369111e+23
0.0009280253929388443,6.005508629474081e+17,-3.5979146242910513e+24,1026.6952663804857,8.107826751885261e+23
0.0009380253929388443,5.887450346695402e+17,-3.621177016985793e+24,1030.9034523695075,8.014492698707082e+23
0.0009480253929388443,5.773075623019226e+17,-3.6439669991025146e+24,1035.0869800469711,7.922936788270656e+23
0.0009580253929388444,5.662230738588502e+17,-3.666291909134447e+24,1039.2462237135428,7.833111287809342e+23
0.0009680253929388444,5.5547698040175814e+17,-3.688158817791502e+24,1043.3815473964867,7.744969751561004e+23
0.0009780253929388444,5.450554262046729e+17,-3.7095744938324974e+24,1047.4933052417202,7.658466911766509e+23
0.0009880253929388445,5.3494524247321434e+17,-3.730545368803045e+24,1051.581841886502,7.57355857480716e+23
0.0009980253929388445,5.2513390435649043e+17,-3.751077501091371e+24,1055.6474928143514,7.490201522955279e+23
0.0010080253929388445,5.156094910179802e+17,-3.7711765397625006e+24,1059.6905846927257,7.408353422256038e+23
0.0010180253929388445,5.0636064855302074e+17,-3.7908476887268285e+24,1063.7114356949883,7.327972737126972e+23
0.0010280253929388446,4.9737655556047514e+17,-3.810095671820624e+24,1067.710355807125,7.249018652240285e+23
0.0010380253929388446,4.886468911917431e+17,-3.8289246994333825e+24,1071.6876471204414,7.171451002247934e+23
0.0010480253929388446,4.801618055146195e+17,-3.847338437310779e+24,1075.6436041106272,7.09523020983478e+23
0.0010580253929388446,4.719118920402387e+17,-3.8653399781844494e+24,1079.578513904475,7.020317232524064e+23
0.0010680253929388447,4.6388816227173677e+17,-3.8829318168298424e+24,1083.4926565344476,6.946673518530874e+23
0.0010780253929388447,4.5608202214078765e+17,-3.900115829132817e+24,1087.3863051819521,6.87426097185461e+23
0.0010880253929388447,4.484852502050186e+17,-3.9168932556871556e+24,1091.2597264100475,6.803041926664644e+23
0.0010980253929388447,4.410899774853738e+17,-3.9332646903663307e+24,1095.1131803859655,6.732979130887244e+23
0.0011080253929388448,4.3388866882745286e+17,-3.9492300742376365e+24,1098.9469210940274,6.664035738766277e+23
0.0011180253929388448,4.2687410567546726e+17,-3.964788695096679e+24,1102.7611965395583,6.596175312033948e+23
0.0011280253929388448,4.200393701520054e+17,-3.979939192796911e+24,1106.5562489441193,6.529361829194275e+23
0.0011380253929388448,4.133778303408219e+17,-3.9946795704566617e+24,1110.3323149326563,6.463559702311651e+23
0.0011480253929388449,4.0688312667430483e+17,-4.0090072115189196e+24,1114.0896257128686,6.398733800590333e+23
0.001158025392938845,4.005491593315252e+17,-4.022918902544366e+24,1117.8284072471677,6.334849479949621e+23
0.001168025392938845,3.943700765571448e+17,-4.0364108615292673e+24,1121.5488804177378,6.271872617736921e+23
0.001178025392938845,3.8834026381625926e+17,-4.049478771448171e+24,1125.2512611849313,6.209769651671982e+23
0.001188025392938845,3.824543337050644e+17,-4.062117818645622e+24,1128.935760739237,6.14850762209121e+23
0.001198025392938845,3.7670711654193024e+17,-4.0743227356455755e+24,1132.6025856474905,6.088054216561911e+23
0.001208025392938845,3.710936515691708e+17,-4.086087847868612e+24,1136.2519379930227,6.02837781593329e+23
0.001218025392938845,3.656091787002384e+17,-4.097407123734648e+24,1139.8840155106982,5.969447540939742e+23
0.001228025392938845,3.602491307530711e+17,-4.1082742275657574e+24,1143.4990117165112,5.911233298494636e+23
0.0012380253929388451,3.5500912611500896e+17,-4.1186825747071834e+24,1147.0971160323438,5.853705826883808e+23
0.0012480253929388451,3.498849617901087e+17,-4.12862538826458e+24,1150.6785139060441,5.796836739125895e+23
0.0012580253929388452,3.448726067847811e+17,-4.138095756856098e+24,1154.243386926903,5.740598563840245e+23
0.0012680253929388452,3.3996819579238586e+17,-4.147086692795981e+24,1157.7919129369022,5.684964783046113e+23
0.0012780253929388452,3.3516802314225254e+17,-4.1555911901397774e+24,1161.324266137806,5.62990986639598e+23
0.0012880253929388452,3.304685369828578e+17,-4.163602282055482e+24,1164.8406171944657,5.57540930143386e+23
0.0012980253929388453,3.258663336732836e+17,-4.171113097007704e+24,1168.3411333342078,5.521439619547588e+23
0.0013080253929388453,3.213581523606111e+17,-4.178116913295176e+24,1171.8259784427892,5.467978417374153e+23
0.0013180253929388453,3.169408697247188e+17,-4.1846072115114206e+24,1175.2953131568047,5.415004373488815e+23
0.0013280253929388453,3.126114948748909e+17,-4.1905777245567044e+24,1178.7492949529699,5.362497260290174e+23
0.0013380253929388454,3.0836716438577094e+17,-4.1960224848649785e+24,1182.1880782341477,5.310437951056522e+23
0.0013480253929388454,3.0420513746253786e+17,-4.2009358685679396e+24,1185.6118144124164,5.258808422217511e+23
0.0013580253929388454,3.0012279122747955e+17,-4.205312636363218e+24,1189.0206519893009,5.207591750940576e+23
0.0013680253929388455,2.961176161221043e+17,-4.20914797090026e+24,1192.414736633218,5.156772108181419e+23
0.0013780253929388455,2.921872114205156e+17,-4.2124375105464964e+24,1195.7942112542905,5.1063347473932566e+23
0.0013880253929388455,2.883292808511457e+17,-4.215177379440201e+24,1199.159216076658,5.056265989126106e+23
0.0013980253929388455,2.8454162832509462e+17,-4.217364213777861e+24,1202.5098887083625,5.006553201777843e+23
0.0014080253929388456,2.8082215377022685e+17,-4.218995184322064e+24,1205.8463642088482,4.957184778782561e+23
0.0014180253929388456,2.7716884907076106e+17,-4.2200680151574075e+24,1209.1687751543477,4.908150112542505e+23
0.0014280253929388456,2.735797941127894e+17,-4.220580998745641e+24,1212.4772517010022,4.859439565418273e+23
0.0014380253929388456,2.7005315293629146e+17,-4.2205330073711486e+24,1215.771921646049,4.8110444381043995e+23
0.0014480253929388457,2.6658716999463203e+17,-4.2199235010842653e+24,1219.0529104869458,4.762956935715961e+23
0.0014580253929388457,2.6318016652246998e+17,-4.218752532279494e+24,1222.3203414786346,4.7151701319136047e+23
0.0014680253929388457,2.5983053701307494e+17,-4.2170207470617676e+24,1225.5743356889911,4.6676779313880665e+23
0.0014780253929388457,2.56536745805969e+17,-4.214729383569596e+24,1228.8150120524929,4.620475031016914e+23
0.0014880253929388458,2.5329732378561018e+17,-4.211880267439033e+24,1232.0424874222401,4.5735568799962934e+23
0.0014980253929388458,2.501108651916935e+17,-4.208475804599836e+24,1235.2568766203474,4.5269196392362506e+23
0.0015080253929388458,2.4697602454138176e+17,-4.2045189716030237e+24,1238.4582924867461,4.480560140293361e+23
0.0015180253929388458,2.4389151366348118e+17,-4.2000133036858366e+24,1241.6468459265575,4.434475844098877e+23
0.0015280253929388459,2.4085609884438445e+17,-4.1949628807774287e+24,1244.8226459559332,4.388664799721017e+23
0.001538025392938846,2.3786859808519814e+17,-4.1893723116548245e+24,1247.985799746585,4.343125603384073e+23
0.001548025392938846,2.349278784692986e+17,-4.1832467164511166e+24,1251.1364126689066,4.29785735794602e+23
0.001558025392938846,2.3203285363916464e+17,-4.176591707719561e+24,1254.2745883338828,4.25285963301927e+23
